sensor0,sensor1,diff,time
9,9,0,179343
9,9,0,179344
9,9,0,179345
9,9,0,179357
9,9,0,179358
9,9,0,179359
9,9,0,179371
9,9,0,179372
9,9,0,179373
9,9,0,179374
9,9,0,179386
9,9,0,179387
9,9,0,179388
9,9,0,179400
9,9,0,179401
8,9,-1,179402
8,9,-1,179414
8,9,-1,179415
8,9,-1,179416
8,9,-1,179428
9,9,0,179429
9,9,0,179430
9,9,0,179431
10,10,0,179443
10,10,0,179444
10,10,0,179445
10,10,0,179457
9,9,0,179458
9,9,0,179459
9,9,0,179471
9,9,0,179472
9,9,0,179473
10,9,1,179499
10,10,0,179498
10,10,0,179487
10,10,0,179486
10,10,0,179484
9,9,0,179501
9,9,0,179512
9,9,0,179513
10,9,1,179515
10,10,0,179516
10,10,0,179527
10,10,0,179529
10,10,0,179530
10,10,0,179541
10,10,0,179542
10,10,0,179544
10,10,0,179555
10,10,0,179556
9,10,-1,179557
9,10,-1,179569
9,10,-1,179570
9,10,-1,179571
10,10,0,179583
10,10,0,179584
10,11,-1,179585
10,10,0,179612
10,10,0,179611
11,11,0,179598
11,11,0,179597
11,11,0,179599
10,10,0,179613
10,10,0,179625
10,10,0,179626
10,10,0,179627
10,10,0,179628
10,10,0,179640
10,10,0,179641
9,10,-1,179667
9,10,-1,179656
10,10,0,179642
9,10,-1,179654
9,10,-1,179655
10,10,0,179669
10,10,0,179670
10,10,0,179681
10,11,-1,179683
11,11,0,179684
11,11,0,179695
11,11,0,179696
11,11,0,179698
10,9,1,179723
10,10,0,179712
10,10,0,179709
10,10,0,179710
9,9,0,179724
9,9,0,179725
9,9,0,179737
9,9,0,179738
9,9,0,179739
9,9,0,179741
10,10,0,179754
10,9,1,179753
9,9,0,179752
10,10,0,179766
10,10,0,179767
10,10,0,179768
10,10,0,179780
10,10,0,179781
10,10,0,179782
10,10,0,179794
10,10,0,179795
10,10,0,179796
9,9,0,179838
9,9,0,179837
9,9,0,179825
9,9,0,179824
10,10,0,179807
9,9,0,179821
10,10,0,179810
10,10,0,179809
9,9,0,179839
9,9,0,179823
9,9,0,179850
9,10,-1,179852
10,10,0,179853
10,11,-1,179864
11,11,0,179866
11,11,0,179867
11,11,0,179878
11,11,0,179879
11,11,0,179881
11,11,0,179892
11,11,0,179893
11,11,0,179936
11,11,0,179935
11,12,-1,179934
11,12,-1,179922
11,12,-1,179921
11,11,0,179906
11,12,-1,179908
11,11,0,179907
11,11,0,179894
11,12,-1,179920
10,11,-1,179937
12,13,-1,179963
12,13,-1,179951
13,13,0,179964
10,11,-1,179949
11,12,-1,179950
13,14,-1,179965
13,14,-1,179977
13,14,-1,179978
13,14,-1,179979
13,13,0,179991
13,13,0,180033
13,14,-1,180032
13,14,-1,180021
13,14,-1,180020
13,14,-1,180018
13,13,0,180006
13,13,0,180004
13,13,0,179993
13,13,0,179992
13,14,-1,180007
13,13,0,180035
13,14,-1,180076
13,14,-1,180075
13,13,0,180074
12,13,-1,180061
12,13,-1,180062
12,13,-1,180049
12,13,-1,180047
12,13,-1,180046
12,13,-1,180060
13,14,-1,180088
13,13,0,180089
12,13,-1,180090
12,13,-1,180102
12,13,-1,180103
12,13,-1,180104
12,13,-1,180116
12,13,-1,180117
12,13,-1,180130
12,13,-1,180118
12,13,-1,180131
12,13,-1,180132
12,13,-1,180143
12,13,-1,180145
12,13,-1,180146
11,12,-1,180157
11,12,-1,180159
11,12,-1,180160
11,12,-1,180171
11,12,-1,180172
11,12,-1,180186
11,12,-1,180188
11,12,-1,180174
11,12,-1,180185
11,12,-1,180199
11,12,-1,180200
11,12,-1,180201
11,12,-1,180213
11,12,-1,180214
11,12,-1,180215
11,12,-1,180227
11,12,-1,180228
11,12,-1,180229
11,12,-1,180254
11,12,-1,180243
11,12,-1,180241
11,12,-1,180242
12,12,0,180256
12,13,-1,180257
12,13,-1,180268
12,12,0,180270
12,12,0,180271
11,12,-1,180272
11,12,-1,180284
11,11,0,180300
11,11,0,180311
11,12,-1,180299
11,12,-1,180286
11,12,-1,180285
11,12,-1,180297
11,11,0,180313
11,11,0,180314
12,12,0,180342
12,13,-1,180367
12,13,-1,180355
12,13,-1,180354
12,12,0,180353
12,12,0,180340
11,12,-1,180339
11,12,-1,180328
11,11,0,180326
11,11,0,180325
12,13,-1,180368
12,13,-1,180369
12,12,0,180381
11,11,0,180396
11,11,0,180395
10,11,-1,180397
12,12,0,180382
11,12,-1,180383
11,11,0,180492
11,12,-1,180480
11,12,-1,180479
11,12,-1,180478
11,12,-1,180467
11,12,-1,180465
11,12,-1,180464
11,12,-1,180453
11,12,-1,180451
10,11,-1,180409
11,12,-1,180439
11,12,-1,180438
11,11,0,180436
10,11,-1,180425
10,11,-1,180424
10,11,-1,180422
10,11,-1,180411
10,11,-1,180410
11,12,-1,180450
11,11,0,180493
11,11,0,180494
11,11,0,180506
10,11,-1,180521
10,11,-1,180520
11,11,0,180507
10,11,-1,180508
10,11,-1,180535
10,11,-1,180522
10,11,-1,180534
10,11,-1,180536
10,11,-1,180537
10,11,-1,180553
10,11,-1,180554
10,11,-1,180555
10,10,0,180557
12,13,-1,180611
12,12,0,180610
12,12,0,180598
12,13,-1,180597
12,13,-1,180596
12,13,-1,180612
12,13,-1,180583
11,12,-1,180582
11,12,-1,180570
10,11,-1,180568
12,13,-1,180584
10,11,-1,180569
13,14,-1,180625
13,14,-1,180624
13,14,-1,180626
13,14,-1,180637
13,14,-1,180639
13,14,-1,180640
13,14,-1,180651
13,14,-1,180653
13,14,-1,180654
14,15,-1,180682
14,14,0,180679
14,15,-1,180680
13,14,-1,180666
13,14,-1,180665
14,14,0,180668
14,15,-1,180693
14,15,-1,180694
14,15,-1,180695
14,15,-1,180707
14,15,-1,180708
14,14,0,180709
13,14,-1,180721
13,14,-1,180723
13,14,-1,180722
13,14,-1,180737
13,14,-1,180736
13,14,-1,180735
13,14,-1,180749
13,14,-1,180750
13,13,0,180751
12,13,-1,180763
12,13,-1,180764
12,13,-1,180765
11,12,-1,180776
11,12,-1,180778
12,13,-1,180793
11,12,-1,180792
11,12,-1,180779
11,12,-1,180790
12,13,-1,180804
12,12,0,180805
12,12,0,180807
12,12,0,180818
12,12,0,180819
12,12,0,180821
12,12,0,180832
12,12,0,180834
12,12,0,180833
12,12,0,180847
12,12,0,180846
11,12,-1,180848
11,12,-1,180850
12,12,0,180861
12,12,0,180862
12,12,0,180863
11,12,-1,180918
11,12,-1,180917
11,12,-1,180905
11,12,-1,180904
11,12,-1,180891
11,12,-1,180903
11,12,-1,180889
12,12,0,180877
12,12,0,180876
12,12,0,180875
11,12,-1,180890
11,12,-1,180919
11,12,-1,180931
11,12,-1,180932
11,12,-1,180933
11,12,-1,180944
11,12,-1,180961
11,12,-1,180972
11,12,-1,180960
11,12,-1,180947
11,11,0,180946
11,12,-1,180958
11,12,-1,180973
11,12,-1,180975
11,12,-1,180986
12,13,-1,181014
12,13,-1,181030
12,13,-1,181029
12,13,-1,181028
12,13,-1,181016
12,13,-1,181015
11,12,-1,181001
13,13,0,181042
11,12,-1,181000
11,12,-1,180989
11,12,-1,180987
12,13,-1,181002
13,13,0,181043
13,13,0,181071
13,13,0,181072
13,13,0,181058
13,13,0,181069
13,13,0,181057
13,13,0,181056
13,13,0,181044
13,13,0,181083
13,13,0,181085
13,13,0,181086
13,14,-1,181087
13,14,-1,181099
13,13,0,181100
13,13,0,181101
13,13,0,181112
13,13,0,181114
13,13,0,181126
13,13,0,181115
12,12,0,181128
12,12,0,181129
12,12,0,181140
12,12,0,181141
12,12,0,181143
12,12,0,181154
12,12,0,181155
12,12,0,181157
13,13,0,181197
13,13,0,181212
13,13,0,181211
13,13,0,181210
13,13,0,181198
13,13,0,181196
12,12,0,181182
12,12,0,181183
12,12,0,181170
12,12,0,181169
12,12,0,181168
12,13,-1,181184
13,13,0,181223
12,13,-1,181225
11,12,-1,181268
11,12,-1,181266
11,12,-1,181255
11,12,-1,181254
11,12,-1,181253
11,12,-1,181241
11,12,-1,181239
12,12,0,181237
12,12,0,181226
11,12,-1,181240
11,11,0,181308
10,11,-1,181323
10,11,-1,181322
11,11,0,181311
11,11,0,181309
11,11,0,181297
11,12,-1,181280
11,12,-1,181294
11,12,-1,181283
11,12,-1,181282
11,12,-1,181269
11,12,-1,181295
10,11,-1,181324
10,11,-1,181336
10,11,-1,181337
12,12,0,181405
12,12,0,181407
12,12,0,181408
12,12,0,181419
11,11,0,181434
11,11,0,181422
11,11,0,181433
11,11,0,181436
11,11,0,181420
12,12,0,181393
12,12,0,181394
11,11,0,181380
11,11,0,181379
11,11,0,181378
11,11,0,181366
10,11,-1,181365
10,11,-1,181364
10,11,-1,181352
10,11,-1,181351
10,11,-1,181350
10,11,-1,181338
11,12,-1,181391
11,11,0,181447
11,12,-1,181448
11,12,-1,181449
11,12,-1,181461
11,12,-1,181462
11,12,-1,181463
11,11,0,181475
11,11,0,181476
11,11,0,181477
11,11,0,181478
11,11,0,181504
11,11,0,181492
11,11,0,181491
11,11,0,181490
11,11,0,181505
11,12,-1,181506
11,12,-1,181518
11,12,-1,181519
11,12,-1,181520
11,12,-1,181532
11,12,-1,181533
11,12,-1,181534
11,12,-1,181561
11,12,-1,181559
11,12,-1,181548
11,12,-1,181547
11,12,-1,181546
11,12,-1,181562
11,12,-1,181573
11,12,-1,181575
11,12,-1,181576
11,12,-1,181587
11,12,-1,181588
11,12,-1,181590
11,12,-1,181601
11,12,-1,181615
11,12,-1,181602
11,12,-1,181604
11,12,-1,181616
11,12,-1,181617
12,13,-1,181629
12,13,-1,181630
12,13,-1,181631
12,13,-1,181643
12,13,-1,181644
12,12,0,181645
11,12,-1,181658
11,12,-1,181657
11,12,-1,181659
11,12,-1,181671
11,12,-1,181672
11,12,-1,181673
11,12,-1,181684
11,12,-1,181686
11,12,-1,181687
11,12,-1,181698
11,12,-1,181701
11,12,-1,181700
11,12,-1,181712
11,12,-1,181715
11,12,-1,181726
11,12,-1,181727
11,12,-1,181729
11,12,-1,181740
11,12,-1,181741
12,13,-1,181742
12,13,-1,181754
12,13,-1,181755
12,13,-1,181756
12,13,-1,181768
12,13,-1,181769
12,13,-1,181770
12,13,-1,181782
12,13,-1,181783
12,13,-1,181784
12,13,-1,181796
12,13,-1,181797
12,13,-1,181798
12,13,-1,181809
12,13,-1,181811
12,13,-1,181812
12,13,-1,181823
12,13,-1,181825
12,13,-1,181837
12,13,-1,181826
12,13,-1,181839
12,13,-1,181840
12,13,-1,181851
12,13,-1,181852
12,13,-1,181854
12,13,-1,181855
12,13,-1,181866
12,13,-1,181868
12,13,-1,181869
12,13,-1,181880
11,12,-1,181895
11,12,-1,181894
11,12,-1,181881
11,12,-1,181883
11,12,-1,181908
11,12,-1,181909
11,12,-1,181910
11,12,-1,181922
11,12,-1,181923
11,13,-2,181924
11,13,-2,181936
11,13,-2,181937
11,13,-2,181938
11,13,-2,181950
11,13,-2,181951
11,13,-2,181952
11,12,-1,181964
11,12,-1,181965
11,12,-1,181966
11,12,-1,181977
11,12,-1,181979
11,12,-1,181980
11,12,-1,181991
11,12,-1,181993
11,12,-1,182005
11,12,-1,181994
11,12,-1,182006
11,12,-1,182008
11,12,-1,182019
11,12,-1,182020
11,12,-1,182022
11,12,-1,182033
11,12,-1,182034
11,12,-1,182036
11,12,-1,182047
11,12,-1,182048
11,12,-1,182049
11,12,-1,182061
11,12,-1,182062
11,12,-1,182063
11,11,0,182075
10,11,-1,182076
10,11,-1,182077
10,11,-1,182089
10,11,-1,182090
11,11,0,182091
11,11,0,182103
11,11,0,182104
11,11,0,182105
11,11,0,182116
11,11,0,182118
11,11,0,182119
11,11,0,182130
11,11,0,182132
11,11,0,182133
11,11,0,182144
11,11,0,182145
11,11,0,182147
11,11,0,182158
11,11,0,182159
11,11,0,182161
11,12,-1,182162
11,12,-1,182173
11,12,-1,182174
11,12,-1,182176
11,12,-1,182187
11,12,-1,182188
11,12,-1,182190
11,12,-1,182201
11,12,-1,182202
11,12,-1,182203
11,12,-1,182215
11,12,-1,182216
11,12,-1,182217
11,11,0,182229
10,11,-1,182230
10,11,-1,182231
10,11,-1,182243
10,11,-1,182244
10,11,-1,182245
11,12,-1,182257
11,12,-1,182258
11,12,-1,182259
11,13,-2,182272
11,12,-1,182270
11,12,-1,182273
11,12,-1,182284
11,12,-1,182286
11,12,-1,182287
11,12,-1,182298
11,12,-1,182300
11,12,-1,182301
11,12,-1,182312
11,12,-1,182315
11,12,-1,182313
11,12,-1,182329
11,12,-1,182326
11,12,-1,182327
11,13,-2,182341
12,13,-1,182343
12,13,-1,182354
12,14,-2,182355
12,14,-2,182356
12,14,-2,182369
12,14,-2,182368
12,14,-2,182370
12,14,-2,182382
12,14,-2,182384
12,14,-2,182383
12,14,-2,182396
12,14,-2,182397
12,14,-2,182398
12,14,-2,182410
12,14,-2,182411
12,14,-2,182412
13,14,-1,182424
13,14,-1,182425
14,15,-1,182426
14,15,-1,182437
14,16,-2,182439
15,17,-2,182453
15,16,-1,182440
15,16,-1,182451
16,17,-1,182454
16,17,-1,182465
16,17,-1,182466
16,18,-2,182468
17,18,-1,182479
17,18,-1,182480
16,17,-1,182482
16,17,-1,182493
15,17,-2,182495
16,17,-1,182494
15,17,-2,182507
15,17,-2,182508
15,17,-2,182509
15,17,-2,182521
15,16,-1,182522
15,16,-1,182523
15,16,-1,182535
16,17,-1,182536
17,18,-1,182537
18,20,-2,182548
19,21,-2,182554
21,23,-2,182555
23,24,-1,182556
23,25,-2,182558
24,25,-1,182569
25,26,-1,182570
25,26,-1,182571
25,26,-1,182583
25,25,0,182584
24,25,-1,182585
24,25,-1,182598
25,25,0,182599
24,25,-1,182597
25,26,-1,182611
26,26,0,182612
26,26,0,182613
27,27,0,182624
28,28,0,182626
29,29,0,182627
30,30,0,182638
31,31,0,182640
32,32,0,182641
33,33,0,182652
33,33,0,182653
34,34,0,182655
35,34,1,182666
35,35,0,182667
36,36,0,182669
37,37,0,182680
39,39,0,182682
40,39,1,182694
40,39,1,182695
40,40,0,182696
40,40,0,182708
42,42,0,182723
41,40,1,182710
40,40,0,182709
42,41,1,182722
43,43,0,182725
43,43,0,182737
43,42,1,182738
42,41,1,182739
42,41,1,182751
42,41,1,182752
40,39,1,182766
41,40,1,182765
42,41,1,182753
39,38,1,182767
39,38,1,182778
39,38,1,182780
39,38,1,182781
39,38,1,182792
39,38,1,182794
39,37,2,182795
37,34,3,182807
38,36,2,182806
33,30,3,182820
31,28,3,182821
30,27,3,182823
29,27,2,182834
30,28,2,182836
29,27,2,182835
32,29,3,182848
33,30,3,182849
33,30,3,182850
33,31,2,182862
33,31,2,182863
33,31,2,182864
33,31,2,182865
34,31,3,182877
34,31,3,182878
34,31,3,182891
33,31,2,182879
35,32,3,182892
35,32,3,182893
36,33,3,182905
36,34,2,182906
37,34,3,182907
36,34,2,182918
37,35,2,182920
39,36,3,182921
40,37,3,182932
41,38,3,182934
41,39,2,182935
42,39,3,182946
42,39,3,182947
42,40,2,182949
43,42,1,182960
43,42,1,182961
43,42,1,182963
42,41,1,182974
41,39,2,182975
39,38,1,182976
38,37,1,182988
37,36,1,182989
36,36,0,182990
36,35,1,183003
36,35,1,183002
36,36,0,183004
37,37,0,183005
38,38,0,183017
39,39,0,183018
38,39,-1,183019
37,38,-1,183031
37,38,-1,183032
37,38,-1,183033
36,38,-2,183045
36,38,-2,183046
36,37,-1,183047
34,35,-1,183059
32,33,-1,183060
31,33,-2,183061
31,33,-2,183072
32,34,-2,183074
33,36,-3,183075
35,38,-3,183086
37,38,-1,183088
37,38,-1,183100
37,37,0,183102
37,38,-1,183089
36,37,-1,183103
37,38,-1,183114
37,38,-1,183115
37,37,0,183117
37,37,0,183128
37,37,0,183129
37,37,0,183131
37,36,1,183142
37,37,0,183143
38,37,1,183144
38,37,1,183156
38,37,1,183157
38,37,1,183158
38,37,1,183170
39,38,1,183171
39,38,1,183172
40,38,2,183184
40,38,2,183185
41,38,3,183186
41,38,3,183198
42,39,3,183199
42,39,3,183200
42,39,3,183201
42,38,4,183213
41,36,5,183214
40,36,4,183215
40,36,4,183226
39,36,3,183228
39,36,3,183229
39,36,3,183240
39,36,3,183242
39,36,3,183243
38,35,3,183254
37,35,2,183255
38,36,2,183257
41,40,1,183269
40,38,2,183268
42,41,1,183271
44,42,2,183282
44,43,1,183283
44,43,1,183284
45,43,2,183296
45,44,1,183297
45,43,2,183298
44,43,1,183310
44,43,1,183312
44,43,1,183311
44,42,2,183324
44,42,2,183325
43,42,1,183326
43,43,0,183338
44,44,0,183339
45,45,0,183340
45,46,-1,183341
47,46,1,183354
46,47,-1,183353
45,45,0,183355
44,43,1,183368
44,44,0,183367
43,42,1,183369
42,42,0,183380
42,42,0,183382
42,43,-1,183383
43,43,0,183394
43,43,0,183396
42,42,0,183397
41,41,0,183408
40,40,0,183409
38,37,1,183422
39,38,1,183411
36,35,1,183423
35,35,0,183425
34,34,0,183436
34,34,0,183437
35,35,0,183438
35,36,-1,183450
36,37,-1,183451
37,38,-1,183452
38,38,0,183464
39,39,0,183465
39,39,0,183466
36,35,1,183480
37,36,1,183479
38,37,1,183478
36,35,1,183491
35,34,1,183493
35,34,1,183494
35,34,1,183495
34,33,1,183507
34,33,1,183508
35,34,1,183509
36,36,0,183520
39,38,1,183522
40,39,1,183523
41,39,2,183534
41,39,2,183536
42,41,1,183537
44,44,0,183548
47,47,0,183549
50,48,2,183551
51,50,1,183562
53,51,2,183563
54,52,2,183565
55,52,3,183576
55,52,3,183577
54,50,4,183590
54,51,3,183578
53,50,3,183591
52,49,3,183592
52,48,4,183604
52,49,3,183605
53,50,3,183606
54,50,4,183618
53,50,3,183619
53,49,4,183620
53,49,4,183631
52,49,3,183633
52,49,3,183634
52,49,3,183635
52,49,3,183647
53,49,4,183648
52,47,5,183649
50,45,5,183661
48,44,4,183662
47,43,4,183663
46,43,3,183674
46,42,4,183676
44,39,5,183677
41,36,5,183688
39,35,4,183689
38,34,4,183691
37,33,4,183702
36,32,4,183703
35,31,4,183705
34,31,3,183716
33,30,3,183717
33,30,3,183718
34,31,3,183730
34,31,3,183731
34,31,3,183732
34,31,3,183744
32,29,3,183745
31,28,3,183746
30,28,2,183758
30,29,1,183759
32,30,2,183760
34,32,2,183761
35,34,1,183773
37,35,2,183775
37,35,2,183787
37,35,2,183788
37,35,2,183789
37,35,2,183801
37,36,1,183802
37,35,2,183803
36,34,2,183814
36,35,1,183816
37,35,2,183817
37,35,2,183828
37,35,2,183830
37,35,2,183831
37,35,2,183842
37,35,2,183843
38,36,2,183845
39,37,2,183856
40,37,3,183857
41,38,3,183870
40,37,3,183859
42,39,3,183871
42,40,2,183872
43,40,3,183884
44,41,3,183885
45,41,4,183886
44,40,4,183898
43,39,4,183899
42,38,4,183900
40,37,3,183901
39,36,3,183913
39,36,3,183914
38,35,3,183915
38,35,3,183927
37,35,2,183928
37,35,2,183929
37,35,2,183941
37,35,2,183942
38,35,3,183943
38,35,3,183954
37,35,2,183956
38,37,1,183957
41,39,2,183970
42,40,2,183971
43,41,2,183982
43,41,2,183983
43,40,3,183985
42,40,2,183996
41,39,2,183997
40,38,2,183999
40,38,2,184010
39,37,2,184011
39,36,3,184012
38,36,2,184024
38,35,3,184026
38,36,2,184025
37,35,2,184038
37,36,1,184039
38,36,2,184040
39,37,2,184041
39,37,2,184053
40,38,2,184054
41,40,1,184055
43,43,0,184067
45,44,1,184068
46,45,1,184069
46,45,1,184081
47,45,2,184082
46,45,1,184083
46,45,1,184095
45,44,1,184096
44,43,1,184097
44,43,1,184108
43,42,1,184110
43,43,0,184111
44,44,0,184122
45,45,0,184125
44,45,-1,184124
45,46,-1,184136
46,46,0,184137
47,46,1,184139
47,47,0,184150
47,47,0,184151
47,47,0,184153
47,47,0,184164
47,47,0,184165
47,46,1,184166
46,44,2,184178
44,43,1,184179
43,44,-1,184180
45,46,-1,184182
47,47,0,184193
48,47,1,184194
47,46,1,184195
47,46,1,184207
47,46,1,184208
46,45,1,184209
46,45,1,184221
46,45,1,184222
46,45,1,184223
45,44,1,184235
44,42,2,184236
43,42,1,184237
42,41,1,184249
42,40,2,184250
42,40,2,184251
41,39,2,184262
41,39,2,184264
41,39,2,184265
40,38,2,184276
39,37,2,184277
39,37,2,184279
39,37,2,184290
39,38,1,184293
39,37,2,184291
40,38,2,184304
40,39,1,184305
41,39,2,184306
41,39,2,184318
40,38,2,184319
38,35,3,184320
35,33,2,184322
33,31,2,184333
32,30,2,184334
32,30,2,184335
32,30,2,184347
32,29,3,184348
31,29,2,184349
31,29,2,184361
31,29,2,184362
31,29,2,184363
31,28,3,184375
30,28,2,184376
30,28,2,184377
29,27,2,184389
28,26,2,184390
27,25,2,184391
27,25,2,184402
26,25,1,184404
26,25,1,184405
26,25,1,184416
26,25,1,184417
26,25,1,184419
26,25,1,184430
26,25,1,184431
26,25,1,184433
26,25,1,184444
26,25,1,184445
26,26,0,184458
26,26,0,184459
26,25,1,184460
26,25,1,184462
26,26,0,184473
26,26,0,184474
27,26,1,184475
27,27,0,184487
27,27,0,184489
28,28,0,184501
29,30,-1,184502
30,31,-1,184503
31,32,-1,184515
31,32,-1,184516
33,33,0,184531
33,33,0,184530
31,32,-1,184517
32,33,-1,184529
33,33,0,184542
33,33,0,184544
33,33,0,184545
33,32,1,184561
32,32,0,184562
32,34,-2,184563
35,36,-1,184564
45,44,1,184590
43,42,1,184578
41,40,1,184577
38,39,-1,184576
47,45,2,184591
48,46,2,184592
49,47,2,184604
50,47,3,184605
50,46,4,184606
49,47,2,184618
50,48,2,184619
56,53,3,184633
52,51,1,184620
55,52,3,184631
57,53,4,184634
57,53,4,184645
58,54,4,184647
59,55,4,184648
60,56,4,184659
60,55,5,184660
60,55,5,184662
60,56,4,184676
61,56,5,184687
60,55,5,184673
60,55,5,184674
62,58,4,184689
63,58,5,184701
61,55,6,184702
58,51,7,184703
54,49,5,184705
51,47,4,184716
50,46,4,184717
49,46,3,184718
48,46,2,184730
49,46,3,184731
49,47,2,184732
48,47,1,184744
48,47,1,184745
48,46,2,184746
47,43,4,184758
44,41,3,184759
43,40,3,184760
42,39,3,184771
41,38,3,184773
39,37,2,184774
38,35,3,184785
36,34,2,184787
33,31,2,184799
34,32,2,184788
32,30,2,184800
32,31,1,184802
33,32,1,184813
34,32,2,184814
34,33,1,184816
34,34,0,184827
36,35,1,184828
37,36,1,184829
38,37,1,184841
39,38,1,184843
39,38,1,184842
39,38,1,184845
39,38,1,184856
40,38,2,184857
40,39,1,184858
40,39,1,184870
40,39,1,184871
42,41,1,184872
44,43,1,184884
47,46,1,184886
46,45,1,184885
48,46,2,184898
48,47,1,184899
49,47,2,184900
49,47,2,184911
50,48,2,184914
50,48,2,184925
50,48,2,184927
51,49,2,184928
52,51,1,184939
53,51,2,184940
53,52,1,184942
52,51,1,184967
53,52,1,184956
54,53,1,184954
53,52,1,184953
51,50,1,184969
50,50,0,184981
51,50,1,184982
51,50,1,184983
50,49,1,184985
48,47,1,184996
46,45,1,184997
44,43,1,184998
43,42,1,185010
37,36,1,185012
34,33,1,185024
41,39,2,185011
32,32,0,185025
31,30,1,185026
30,30,0,185038
29,30,-1,185039
29,30,-1,185040
29,30,-1,185052
30,31,-1,185053
30,31,-1,185054
31,32,-1,185065
30,30,0,185068
29,29,0,185079
28,27,1,185081
26,25,1,185082
24,24,0,185093
24,24,0,185094
24,24,0,185096
25,26,-1,185107
27,28,-1,185108
29,30,-1,185110
31,32,-1,185121
33,33,0,185122
34,34,0,185123
35,35,0,185135
36,36,0,185136
37,37,0,185137
38,38,0,185149
38,39,-1,185150
41,41,0,185152
42,42,0,185164
43,42,1,185165
43,41,2,185166
42,41,1,185178
41,40,1,185179
41,39,2,185180
40,39,1,185193
40,39,1,185192
41,40,1,185194
41,40,1,185206
42,42,0,185207
43,43,0,185208
44,43,1,185219
44,44,0,185221
44,43,1,185222
44,43,1,185233
43,41,2,185234
41,39,2,185236
39,36,3,185247
35,34,1,185248
34,33,1,185250
34,34,0,185261
34,34,0,185262
34,34,0,185263
34,35,-1,185275
35,35,0,185276
36,36,0,185277
36,36,0,185289
35,35,0,185290
35,34,1,185292
35,35,0,185291
34,34,0,185304
34,34,0,185305
34,34,0,185306
34,34,0,185318
35,34,1,185319
35,34,1,185320
34,33,1,185332
34,33,1,185333
34,32,2,185334
33,32,1,185346
32,30,2,185348
33,31,2,185347
32,30,2,185359
32,30,2,185361
33,31,2,185362
35,33,2,185373
36,34,2,185375
37,35,2,185376
38,35,3,185387
38,34,4,185388
36,32,4,185390
34,30,4,185402
35,31,4,185401
33,29,4,185403
32,28,4,185415
32,28,4,185416
32,28,4,185417
33,29,4,185429
33,29,4,185430
33,29,4,185431
34,30,4,185445
33,29,4,185432
33,30,3,185444
34,31,3,185446
36,32,4,185459
36,33,3,185472
36,33,3,185460
36,33,3,185473
36,33,3,185474
36,34,2,185486
36,34,2,185487
37,34,3,185488
37,35,2,185499
36,33,3,185501
33,31,2,185513
31,30,1,185515
32,31,1,185516
33,32,1,185527
34,32,2,185528
34,32,2,185530
34,33,1,185541
34,33,1,185542
33,32,1,185544
33,32,1,185555
34,33,1,185556
34,33,1,185557
34,33,1,185559
34,33,1,185570
34,34,0,185571
34,34,0,185573
34,33,1,185584
33,33,0,185585
32,31,1,185586
31,30,1,185598
30,30,0,185600
30,29,1,185612
29,28,1,185613
30,29,1,185626
30,30,0,185627
30,30,0,185628
31,31,0,185640
31,31,0,185641
32,31,1,185642
32,31,1,185653
31,30,1,185655
30,29,1,185656
30,29,1,185667
30,29,1,185669
30,30,0,185670
32,32,0,185681
33,33,0,185682
33,33,0,185684
33,32,1,185695
32,31,1,185696
31,31,0,185698
31,31,0,185699
32,32,0,185710
33,34,-1,185711
35,36,-1,185713
37,38,-1,185724
39,41,-2,185727
40,41,-1,185738
41,41,0,185739
41,41,0,185740
41,41,0,185752
40,40,0,185753
39,39,0,185754
39,39,0,185766
39,39,0,185767
39,40,-1,185768
40,42,-2,185780
42,44,-2,185782
43,44,-1,185793
43,44,-1,185795
43,44,-1,185796
42,43,-1,185807
41,42,-1,185809
40,41,-1,185810
39,40,-1,185821
39,39,0,185822
39,39,0,185824
40,41,-1,185836
42,42,0,185838
43,42,1,185849
43,41,2,185850
41,39,2,185851
40,38,2,185863
39,37,2,185864
38,36,2,185865
37,35,2,185877
37,35,2,185878
36,35,1,185879
37,36,1,185891
38,37,1,185892
39,38,1,185893
39,38,1,185894
40,38,2,185906
40,38,2,185907
40,38,2,185908
39,37,2,185920
39,37,2,185922
39,37,2,185921
38,36,2,185934
38,36,2,185935
38,36,2,185936
38,36,2,185947
38,36,2,185949
38,37,1,185950
39,37,2,185961
39,38,1,185963
39,37,2,185964
38,35,3,185975
34,33,1,185990
34,33,1,185989
36,34,2,185976
35,34,1,185978
33,32,1,186003
33,32,1,186004
33,33,0,186005
34,34,0,186017
35,35,0,186018
36,35,1,186019
36,34,2,186031
34,33,1,186033
35,34,1,186032
34,34,0,186046
34,33,1,186047
33,33,0,186048
33,33,0,186060
33,32,1,186061
32,32,0,186062
33,33,0,186074
33,33,0,186075
34,34,0,186076
35,35,0,186089
35,35,0,186101
35,35,0,186087
35,35,0,186090
35,35,0,186104
35,35,0,186115
35,34,1,186116
34,34,0,186118
33,33,0,186129
33,33,0,186130
34,34,0,186132
35,35,0,186143
35,35,0,186144
33,34,-1,186145
33,33,0,186157
32,33,-1,186158
32,33,-1,186159
32,33,-1,186171
32,33,-1,186172
32,33,-1,186173
32,33,-1,186185
32,33,-1,186186
32,33,-1,186187
33,34,-1,186188
34,34,0,186202
34,34,0,186201
33,34,-1,186200
34,34,0,186214
34,33,1,186215
33,32,1,186216
32,31,1,186228
31,30,1,186229
30,29,1,186230
29,28,1,186242
28,28,0,186243
28,28,0,186244
29,29,0,186255
30,30,0,186257
31,30,1,186258
31,30,1,186269
31,29,2,186271
30,29,1,186272
30,28,2,186283
30,28,2,186284
29,28,1,186286
30,28,2,186297
30,28,2,186298
29,27,2,186300
29,27,2,186311
28,26,2,186312
27,26,1,186313
27,25,2,186325
27,26,1,186326
27,26,1,186327
27,26,1,186339
27,26,1,186341
27,26,1,186342
27,26,1,186354
27,26,1,186355
28,27,1,186356
29,28,1,186368
30,29,1,186369
30,30,0,186370
31,31,0,186382
31,31,0,186383
31,31,0,186384
31,31,0,186395
31,31,0,186397
32,31,1,186398
32,31,1,186409
32,32,0,186411
33,32,1,186412
33,33,0,186423
35,34,1,186438
34,34,0,186437
34,34,0,186426
34,33,1,186424
35,35,0,186451
35,34,1,186452
34,33,1,186453
33,32,1,186465
33,32,1,186466
34,33,1,186467
34,33,1,186469
35,34,1,186480
35,34,1,186481
35,34,1,186483
35,33,2,186494
34,32,2,186495
33,31,2,186496
31,30,1,186508
30,29,1,186509
30,28,2,186510
29,28,1,186522
29,28,1,186523
29,28,1,186524
30,29,1,186536
30,29,1,186537
31,30,1,186549
31,30,1,186538
30,29,1,186551
30,29,1,186552
30,28,2,186568
29,27,2,186569
28,27,1,186570
28,27,1,186571
30,29,1,186584
31,29,2,186585
31,30,1,186597
32,30,2,186598
31,29,2,186599
30,28,2,186611
30,27,3,186612
29,27,2,186613
30,28,2,186625
30,28,2,186626
30,28,2,186627
31,29,2,186638
31,29,2,186640
32,30,2,186641
32,30,2,186652
32,30,2,186655
33,30,3,186654
32,29,3,186666
31,28,3,186667
30,27,3,186669
29,26,3,186680
28,26,2,186681
28,25,3,186683
29,28,1,186695
32,30,2,186709
30,29,1,186696
31,30,1,186698
32,30,2,186710
31,30,1,186712
30,29,1,186723
29,28,1,186724
29,28,1,186725
28,28,0,186737
29,30,-1,186738
32,33,-1,186739
34,35,-1,186751
35,36,-1,186752
36,36,0,186753
36,36,0,186765
36,36,0,186766
36,36,0,186767
36,36,0,186779
36,36,0,186780
35,36,-1,186781
35,36,-1,186793
36,37,-1,186794
37,37,0,186795
37,38,-1,186806
38,39,-1,186808
39,40,-1,186809
39,40,-1,186820
40,41,-1,186822
41,41,0,186823
41,41,0,186834
40,41,-1,186835
40,40,0,186837
40,40,0,186848
39,40,-1,186849
39,40,-1,186851
40,40,0,186862
40,41,-1,186863
41,41,0,186864
41,40,1,186876
36,35,1,186878
39,38,1,186877
34,33,1,186890
32,32,0,186891
32,31,1,186892
31,30,1,186905
31,31,0,186906
32,32,0,186907
33,33,0,186919
35,34,1,186920
35,35,0,186921
36,35,1,186933
36,36,0,186934
37,36,1,186935
37,36,1,186946
37,36,1,186948
37,35,2,186949
37,35,2,186960
36,34,2,186962
34,32,2,186963
33,31,2,186974
33,32,1,186975
34,33,1,186977
37,36,1,186989
36,35,1,186988
38,37,1,186991
38,37,1,187002
38,38,0,187003
38,38,0,187004
39,38,1,187016
39,39,0,187017
39,38,1,187020
39,38,1,187031
38,38,0,187032
38,38,0,187034
39,38,1,187045
37,36,1,187047
38,37,1,187046
36,36,0,187059
36,35,1,187060
36,35,1,187061
34,34,0,187073
33,32,1,187074
32,31,1,187075
31,30,1,187087
30,30,0,187088
31,31,0,187100
31,31,0,187102
30,31,-1,187089
31,32,-1,187103
32,32,0,187114
31,30,1,187116
30,29,1,187117
29,28,1,187128
28,27,1,187129
29,28,1,187131
29,28,1,187142
30,29,1,187145
30,28,2,187143
30,29,1,187157
30,29,1,187156
30,29,1,187158
31,30,1,187160
32,31,1,187171
32,31,1,187172
32,31,1,187174
32,31,1,187185
31,30,1,187186
31,30,1,187187
31,30,1,187199
31,30,1,187200
31,31,0,187201
33,33,0,187213
34,34,0,187214
35,35,0,187215
36,36,0,187227
37,36,1,187228
37,37,0,187229
37,38,-1,187241
38,38,0,187242
38,38,0,187243
38,38,0,187254
37,38,-1,187256
37,37,0,187257
35,36,-1,187270
36,37,-1,187268
35,35,0,187271
35,35,0,187282
35,35,0,187283
35,35,0,187285
35,35,0,187296
36,36,0,187297
37,37,0,187299
37,37,0,187310
37,37,0,187311
38,37,1,187314
38,37,1,187312
39,38,1,187325
40,39,1,187326
42,41,1,187327
43,42,1,187339
44,43,1,187340
43,42,1,187341
43,41,2,187353
42,41,1,187354
42,40,2,187355
41,39,2,187367
41,39,2,187368
41,39,2,187369
40,38,2,187381
40,38,2,187382
40,39,1,187383
41,39,2,187394
41,40,1,187396
42,41,1,187397
43,42,1,187408
43,42,1,187410
43,42,1,187411
43,42,1,187422
43,42,1,187423
42,41,1,187425
41,39,2,187436
39,38,1,187437
37,36,1,187439
36,36,0,187450
36,37,-1,187451
37,37,0,187452
37,38,-1,187454
37,37,0,187465
35,35,0,187466
34,34,0,187468
32,33,-1,187480
33,33,0,187479
31,32,-1,187481
31,33,-2,187493
33,35,-2,187494
36,37,-1,187495
37,39,-2,187507
38,40,-2,187508
39,41,-2,187509
40,41,-1,187521
39,40,-1,187522
39,40,-1,187523
38,39,-1,187535
37,38,-1,187536
37,37,0,187537
36,37,-1,187549
37,38,-1,187550
38,39,-1,187551
39,40,-1,187562
43,43,0,187565
44,44,0,187576
45,45,0,187578
46,45,1,187579
46,45,1,187590
46,44,2,187591
45,44,1,187593
44,43,1,187604
44,42,2,187605
43,42,1,187607
43,42,1,187618
44,43,1,187619
44,43,1,187620
44,42,2,187632
43,41,2,187633
42,40,2,187634
40,38,2,187647
41,39,2,187646
39,38,1,187648
39,38,1,187649
39,38,1,187661
39,39,0,187662
39,39,0,187663
39,39,0,187675
39,39,0,187676
38,36,2,187689
36,35,1,187690
35,34,1,187691
32,32,0,187704
33,33,0,187702
31,31,0,187705
31,31,0,187716
30,30,0,187718
29,30,-1,187719
30,30,0,187730
30,31,-1,187731
30,31,-1,187733
31,31,0,187744
31,31,0,187745
31,31,0,187747
31,31,0,187758
31,32,-1,187759
32,32,0,187760
31,31,0,187772
29,29,0,187773
28,28,0,187774
28,28,0,187786
27,27,0,187787
27,27,0,187788
26,27,-1,187800
27,28,-1,187801
28,29,-1,187802
29,30,-1,187803
30,31,-1,187815
31,32,-1,187816
32,32,0,187817
32,33,-1,187829
33,34,-1,187830
33,34,-1,187831
34,34,0,187843
34,35,-1,187844
35,36,-1,187845
36,37,-1,187856
36,36,0,187858
35,36,-1,187872
35,36,-1,187859
35,36,-1,187870
36,37,-1,187873
36,38,-2,187884
37,38,-1,187885
37,38,-1,187887
36,37,-1,187898
36,37,-1,187899
36,37,-1,187901
36,37,-1,187912
36,36,0,187913
36,38,-2,187926
35,37,-2,187914
38,39,-1,187927
38,40,-2,187928
39,39,0,187940
37,37,0,187942
36,36,0,187954
35,36,-1,187955
35,35,0,187956
34,35,-1,187968
33,34,-1,187969
33,33,0,187970
32,32,0,187982
31,31,0,187983
30,31,-1,187984
30,30,0,187995
29,29,0,187997
29,29,0,187998
27,28,-1,188011
27,27,0,188012
26,26,0,188023
26,26,0,188024
25,26,-1,188026
26,27,-1,188037
27,27,0,188038
28,28,0,188040
28,28,0,188041
28,28,0,188052
27,25,2,188055
25,24,1,188066
24,23,1,188067
23,22,1,188069
23,22,1,188080
22,22,0,188082
23,22,1,188081
22,21,1,188094
22,21,1,188095
22,21,1,188096
22,21,1,188108
22,22,0,188109
23,22,1,188110
23,22,1,188122
23,22,1,188123
23,22,1,188124
24,23,1,188136
24,23,1,188137
24,23,1,188138
24,23,1,188151
24,23,1,188152
24,23,1,188149
22,21,1,188165
21,20,1,188166
20,19,1,188177
19,18,1,188178
18,17,1,188180
18,17,1,188181
17,17,0,188192
17,17,0,188193
18,17,1,188195
18,17,1,188206
17,17,0,188207
17,17,0,188209
17,17,0,188220
17,17,0,188221
17,17,0,188222
18,17,1,188234
18,18,0,188235
18,17,1,188236
17,17,0,188248
17,17,0,188249
17,16,1,188250
16,16,0,188262
15,15,0,188263
15,15,0,188264
15,15,0,188276
14,15,-1,188277
14,14,0,188278
14,14,0,188289
14,14,0,188291
14,14,0,188292
14,14,0,188303
14,14,0,188305
14,15,-1,188317
14,14,0,188306
14,15,-1,188318
14,15,-1,188320
14,15,-1,188331
14,14,0,188332
14,14,0,188334
14,14,0,188335
13,14,-1,188346
14,14,0,188347
14,14,0,188349
15,15,0,188360
15,15,0,188361
15,15,0,188363
15,15,0,188374
15,15,0,188375
15,15,0,188376
14,15,-1,188388
14,15,-1,188389
15,15,0,188390
15,16,-1,188402
15,16,-1,188403
15,16,-1,188404
16,17,-1,188416
16,17,-1,188417
17,18,-1,188429
17,17,0,188418
17,18,-1,188431
18,18,0,188432
18,18,0,188443
18,18,0,188445
18,18,0,188446
18,18,0,188457
18,19,-1,188458
19,19,0,188460
19,19,0,188471
19,19,0,188472
19,19,0,188485
19,19,0,188474
19,19,0,188486
18,18,0,188487
18,18,0,188499
18,18,0,188500
18,18,0,188501
18,18,0,188503
19,19,0,188514
19,19,0,188515
19,19,0,188517
19,19,0,188528
18,18,0,188543
19,18,1,188530
18,18,0,188542
18,18,0,188544
17,18,-1,188556
17,18,-1,188557
17,17,0,188558
17,17,0,188574
16,17,-1,188575
16,16,0,188576
16,16,0,188577
16,16,0,188589
16,16,0,188590
16,17,-1,188591
17,17,0,188603
17,18,-1,188604
17,18,-1,188605
18,19,-1,188617
18,19,-1,188618
18,19,-1,188619
18,18,0,188631
18,18,0,188632
17,17,0,188633
17,17,0,188644
17,17,0,188646
17,18,-1,188647
17,18,-1,188658
18,18,0,188660
18,18,0,188661
18,18,0,188672
18,18,0,188673
18,18,0,188675
18,18,0,188686
18,18,0,188687
18,18,0,188689
18,19,-1,188700
18,19,-1,188701
19,19,0,188702
19,19,0,188714
19,20,-1,188715
19,20,-1,188716
19,19,0,188728
18,19,-1,188729
18,18,0,188730
17,17,0,188742
16,16,0,188743
15,16,-1,188744
15,16,-1,188756
15,15,0,188757
14,15,-1,188758
14,15,-1,188769
14,15,-1,188771
14,15,-1,188772
14,15,-1,188773
14,14,0,188785
13,14,-1,188786
13,14,-1,188787
13,14,-1,188798
13,14,-1,188800
14,15,-1,188801
14,15,-1,188814
14,15,-1,188812
14,15,-1,188815
14,15,-1,188826
14,14,0,188827
14,14,0,188829
14,14,0,188840
14,15,-1,188841
14,15,-1,188843
14,16,-2,188855
15,16,-1,188856
15,16,-1,188868
15,16,-1,188869
15,16,-1,188870
15,16,-1,188882
15,16,-1,188883
15,16,-1,188884
15,16,-1,188896
15,17,-2,188897
15,17,-2,188898
15,17,-2,188910
15,17,-2,188911
15,17,-2,188912
15,17,-2,188924
15,16,-1,188925
15,16,-1,188926
15,16,-1,188937
15,16,-1,188939
14,16,-2,188940
14,16,-2,188951
14,16,-2,188953
14,16,-2,188954
14,16,-2,188965
14,15,-1,188966
14,15,-1,188968
14,15,-1,188979
13,14,-1,188980
13,14,-1,188982
13,14,-1,188993
13,14,-1,188994
13,14,-1,188995
13,14,-1,189007
13,14,-1,189008
13,14,-1,189009
13,14,-1,189021
13,14,-1,189023
13,13,0,189035
12,13,-1,189036
12,13,-1,189037
12,13,-1,189049
12,14,-2,189050
13,14,-1,189051
13,14,-1,189062
13,14,-1,189064
13,14,-1,189065
13,14,-1,189076
13,14,-1,189078
13,14,-1,189079
13,15,-2,189090
13,15,-2,189091
13,15,-2,189093
13,15,-2,189104
13,15,-2,189105
14,15,-1,189107
14,16,-2,189118
14,16,-2,189119
14,16,-2,189120
14,16,-2,189132
14,16,-2,189133
14,16,-2,189134
14,16,-2,189146
14,16,-2,189147
15,16,-1,189148
15,16,-1,189160
15,16,-1,189161
15,16,-1,189162
15,16,-1,189174
15,16,-1,189175
15,16,-1,189176
15,16,-1,189187
15,16,-1,189189
15,16,-1,189190
15,16,-1,189201
14,16,-2,189203
14,15,-1,189204
14,15,-1,189215
14,15,-1,189216
14,15,-1,189218
14,15,-1,189230
14,15,-1,189232
14,15,-1,189233
14,15,-1,189246
14,16,-2,189247
14,16,-2,189258
15,16,-1,189259
15,16,-1,189261
15,16,-1,189272
15,16,-1,189273
15,16,-1,189275
15,16,-1,189286
14,15,-1,189287
14,15,-1,189288
14,15,-1,189300
14,15,-1,189301
14,15,-1,189314
14,15,-1,189315
14,15,-1,189302
14,15,-1,189316
13,15,-2,189328
13,15,-2,189329
13,15,-2,189330
13,15,-2,189342
13,15,-2,189343
13,15,-2,189344
14,14,0,189357
13,14,-1,189369
13,14,-1,189358
13,14,-1,189371
13,14,-1,189372
14,14,0,189383
13,14,-1,189384
13,13,0,189386
12,12,0,189397
12,12,0,189398
11,12,-1,189399
11,11,0,189411
11,11,0,189412
11,11,0,189413
11,11,0,189425
11,11,0,189426
11,11,0,189439
11,11,0,189427
11,11,0,189440
10,11,-1,189441
10,11,-1,189453
10,10,0,189454
10,10,0,189455
10,10,0,189466
10,10,0,189468
10,10,0,189469
10,10,0,189480
10,10,0,189484
10,10,0,189483
10,10,0,189482
10,10,0,189495
10,10,0,189497
9,10,-1,189498
9,10,-1,189509
9,9,0,189511
8,9,-1,189512
8,9,-1,189523
8,9,-1,189525
8,9,-1,189526
8,9,-1,189539
8,9,-1,189537
8,10,-2,189540
9,10,-1,189551
9,10,-1,189552
9,10,-1,189554
9,10,-1,189565
9,10,-1,189566
9,10,-1,189568
9,10,-1,189579
9,10,-1,189580
9,10,-1,189583
9,10,-1,189582
9,10,-1,189596
9,10,-1,189594
9,10,-1,189597
9,10,-1,189608
9,10,-1,189609
8,9,-1,189611
8,9,-1,189622
8,9,-1,189623
9,9,0,189625
9,10,-1,189636
9,10,-1,189651
9,10,-1,189650
9,10,-1,189637
9,10,-1,189639
9,10,-1,189664
9,10,-1,189665
9,10,-1,189666
9,9,0,189678
9,9,0,189679
9,9,0,189680
9,9,0,189681
9,9,0,189693
9,9,0,189694
9,9,0,189707
9,9,0,189695
9,9,0,189708
9,9,0,189709
8,9,-1,189721
8,9,-1,189722
8,9,-1,189723
8,9,-1,189735
8,9,-1,189736
9,9,0,189737
9,9,0,189738
9,9,0,189750
9,9,0,189751
9,9,0,189752
9,9,0,189764
8,9,-1,189765
8,9,-1,189766
8,9,-1,189778
9,9,0,189779
9,9,0,189780
9,10,-1,189791
9,10,-1,189793
9,10,-1,189794
9,10,-1,189795
9,10,-1,189807
9,10,-1,189808
9,10,-1,189809
10,10,0,189821
10,10,0,189822
11,11,0,189823
11,11,0,189834
11,11,0,189836
11,12,-1,189837
11,12,-1,189849
11,12,-1,189851
11,12,-1,189863
11,12,-1,189862
12,12,0,189865
12,12,0,189876
12,13,-1,189877
13,13,0,189878
13,13,0,189890
13,13,0,189891
13,13,0,189892
13,13,0,189904
12,13,-1,189905
12,13,-1,189906
12,13,-1,189918
12,13,-1,189920
12,13,-1,189919
12,13,-1,189932
12,13,-1,189933
12,13,-1,189934
12,13,-1,189945
12,13,-1,189947
12,12,0,189948
12,12,0,189959
12,12,0,189961
12,12,0,189962
12,12,0,189973
12,12,0,189974
12,12,0,189987
12,12,0,189976
12,12,0,189988
12,12,0,189990
12,12,0,189991
11,12,-1,190002
11,12,-1,190003
11,12,-1,190005
11,12,-1,190016
11,12,-1,190017
11,12,-1,190019
11,12,-1,190030
11,12,-1,190031
11,11,0,190032
10,11,-1,190044
10,11,-1,190045
10,11,-1,190046
11,11,0,190058
11,11,0,190059
11,12,-1,190060
11,12,-1,190072
11,12,-1,190073
11,12,-1,190074
11,12,-1,190085
11,12,-1,190087
11,12,-1,190101
11,12,-1,190088
11,12,-1,190099
11,11,0,190102
10,11,-1,190113
10,11,-1,190115
10,11,-1,190116
10,11,-1,190127
10,11,-1,190128
10,11,-1,190130
10,11,-1,190141
10,11,-1,190142
10,11,-1,190144
10,11,-1,190155
10,11,-1,190156
10,12,-2,190157
11,12,-1,190170
11,12,-1,190171
11,12,-1,190183
11,12,-1,190184
11,12,-1,190185
11,12,-1,190197
11,12,-1,190198
10,11,-1,190199
10,11,-1,190212
10,11,-1,190211
10,11,-1,190224
10,11,-1,190226
10,11,-1,190227
10,10,0,190238
9,10,-1,190240
9,10,-1,190241
10,11,-1,190252
10,11,-1,190254
11,11,0,190255
11,12,-1,190266
11,12,-1,190267
11,12,-1,190269
11,12,-1,190280
11,12,-1,190281
11,11,0,190283
11,11,0,190294
10,11,-1,190295
10,11,-1,190296
10,11,-1,190308
10,11,-1,190309
10,11,-1,190310
10,11,-1,190322
10,11,-1,190323
10,11,-1,190324
10,11,-1,190325
11,11,0,190337
11,11,0,190338
11,12,-1,190339
11,12,-1,190351
11,12,-1,190352
11,12,-1,190353
11,12,-1,190365
11,12,-1,190366
11,12,-1,190367
11,12,-1,190379
11,11,0,190380
10,11,-1,190381
10,11,-1,190392
10,11,-1,190394
10,11,-1,190395
10,11,-1,190406
10,11,-1,190408
10,11,-1,190409
10,11,-1,190420
10,11,-1,190421
10,11,-1,190423
10,11,-1,190434
10,11,-1,190435
10,11,-1,190437
10,11,-1,190448
10,11,-1,190449
10,11,-1,190450
10,10,0,190462
10,10,0,190463
10,10,0,190464
10,10,0,190476
9,10,-1,190477
9,10,-1,190490
9,10,-1,190478
9,10,-1,190491
9,10,-1,190492
9,10,-1,190504
9,10,-1,190505
9,10,-1,190506
10,10,0,190517
10,11,-1,190519
10,11,-1,190520
11,12,-1,190531
11,12,-1,190533
11,12,-1,190534
11,12,-1,190545
11,12,-1,190546
11,12,-1,190548
11,12,-1,190559
11,12,-1,190560
11,11,0,190562
11,11,0,190578
11,11,0,190579
10,11,-1,190580
10,11,-1,190581
10,11,-1,190594
10,11,-1,190593
10,11,-1,190595
10,11,-1,190607
11,11,0,190608
11,12,-1,190609
12,12,0,190621
12,13,-1,190622
13,14,-1,190623
14,14,0,190635
15,15,0,190637
15,15,0,190648
14,15,-1,190636
15,16,-1,190650
15,16,-1,190651
15,16,-1,190662
15,15,0,190664
14,15,-1,190665
14,15,-1,190676
14,14,0,190677
14,14,0,190679
14,14,0,190690
14,14,0,190691
14,15,-1,190693
15,15,0,190704
15,16,-1,190705
15,16,-1,190706
15,16,-1,190718
15,16,-1,190719
15,16,-1,190720
15,16,-1,190732
15,16,-1,190733
15,16,-1,190734
15,16,-1,190746
15,16,-1,190747
15,16,-1,190748
15,15,0,190760
14,14,0,190761
13,14,-1,190762
12,13,-1,190773
11,12,-1,190775
11,12,-1,190776
11,12,-1,190787
11,12,-1,190789
11,12,-1,190790
11,12,-1,190801
11,12,-1,190802
11,12,-1,190804
10,11,-1,190815
10,11,-1,190816
10,11,-1,190818
11,12,-1,190829
11,12,-1,190830
11,11,0,190832
10,11,-1,190843
10,11,-1,190844
10,11,-1,190845
10,11,-1,190857
10,11,-1,190858
10,11,-1,190859
10,11,-1,190871
10,11,-1,190873
10,11,-1,190872
10,11,-1,190885
11,11,0,190886
11,12,-1,190887
11,12,-1,190888
11,12,-1,190900
11,12,-1,190901
11,12,-1,190902
12,12,0,190914
12,12,0,190915
12,12,0,190916
12,12,0,190929
12,12,0,190928
12,12,0,190930
11,12,-1,190941
11,12,-1,190943
12,13,-1,190944
12,13,-1,190955
12,13,-1,190957
13,14,-1,190958
13,14,-1,190969
13,14,-1,190971
13,14,-1,190983
13,14,-1,190972
13,15,-2,190984
14,15,-1,190986
14,15,-1,190997
14,15,-1,190998
14,15,-1,191000
14,15,-1,191011
13,15,-2,191012
13,15,-2,191026
13,15,-2,191013
13,15,-2,191025
13,15,-2,191039
13,15,-2,191027
13,14,-1,191040
13,14,-1,191041
12,14,-2,191053
12,14,-2,191054
12,14,-2,191055
13,14,-1,191067
13,14,-1,191068
13,14,-1,191081
13,14,-1,191082
13,14,-1,191083
12,13,-1,191094
12,13,-1,191096
11,12,-1,191097
11,12,-1,191108
11,12,-1,191110
11,12,-1,191111
11,12,-1,191122
11,12,-1,191123
11,12,-1,191125
11,12,-1,191136
11,12,-1,191137
11,12,-1,191139
11,12,-1,191150
11,12,-1,191151
11,11,0,191153
11,11,0,191164
11,11,0,191165
11,11,0,191166
11,11,0,191178
11,12,-1,191180
11,12,-1,191192
11,12,-1,191193
11,12,-1,191206
11,12,-1,191208
11,12,-1,191207
11,12,-1,191220
11,12,-1,191221
11,12,-1,191222
11,12,-1,191223
11,12,-1,191235
11,12,-1,191236
11,11,0,191237
11,11,0,191249
10,10,0,191250
10,10,0,191251
10,11,-1,191264
10,11,-1,191262
10,11,-1,191265
10,11,-1,191276
10,11,-1,191278
10,11,-1,191279
10,11,-1,191290
10,11,-1,191291
10,11,-1,191293
10,11,-1,191304
10,11,-1,191305
10,11,-1,191307
10,11,-1,191318
10,10,0,191319
9,10,-1,191320
9,10,-1,191332
9,10,-1,191333
10,10,0,191334
10,10,0,191346
10,10,0,191347
10,10,0,191348
10,10,0,191360
10,10,0,191362
10,10,0,191361
9,9,0,191373
9,9,0,191375
9,9,0,191376
9,9,0,191387
9,9,0,191389
9,9,0,191390
9,9,0,191391
9,9,0,191404
9,9,0,191403
9,10,-1,191405
10,10,0,191416
10,10,0,191418
10,10,0,191419
10,10,0,191430
10,10,0,191432
10,10,0,191433
10,10,0,191444
10,10,0,191445
10,10,0,191459
10,10,0,191460
10,10,0,191447
10,10,0,191458
10,9,1,191474
10,10,0,191473
10,10,0,191472
9,9,0,191487
9,9,0,191488
9,10,-1,191489
10,10,0,191501
10,10,0,191502
10,10,0,191503
11,11,0,191515
11,11,0,191516
11,11,0,191517
11,10,1,191529
10,10,0,191530
10,10,0,191531
10,10,0,191543
10,10,0,191544
10,10,0,191545
10,10,0,191556
10,10,0,191558
10,10,0,191559
10,10,0,191570
10,10,0,191571
9,10,-1,191573
9,10,-1,191584
9,10,-1,191585
9,10,-1,191587
10,10,0,191598
10,10,0,191599
10,10,0,191601
10,10,0,191602
10,10,0,191613
10,10,0,191614
10,10,0,191616
10,10,0,191627
10,10,0,191628
10,10,0,191630
9,10,-1,191641
9,10,-1,191642
9,10,-1,191643
10,10,0,191655
10,10,0,191656
10,10,0,191657
10,10,0,191669
10,10,0,191670
10,10,0,191671
10,10,0,191683
10,10,0,191684
9,10,-1,191685
9,10,-1,191696
9,10,-1,191699
9,10,-1,191698
9,10,-1,191710
9,10,-1,191712
9,10,-1,191713
9,10,-1,191724
9,9,0,191726
9,9,0,191727
9,9,0,191728
9,9,0,191739
9,9,0,191741
9,9,0,191742
9,10,-1,191753
9,10,-1,191755
9,10,-1,191756
9,10,-1,191767
9,10,-1,191769
9,10,-1,191770
9,9,0,191781
8,9,-1,191782
8,9,-1,191784
8,9,-1,191795
9,9,0,191796
9,9,0,191798
9,9,0,191799
9,9,0,191810
9,9,0,191811
9,9,0,191813
9,9,0,191824
9,9,0,191825
9,9,0,191827
9,9,0,191838
10,10,0,191839
10,10,0,191840
10,10,0,191852
11,11,0,191853
11,11,0,191854
11,11,0,191866
11,11,0,191867
10,10,0,191868
10,10,0,191869
10,10,0,191881
10,10,0,191882
11,11,0,191883
11,11,0,191895
11,11,0,191896
12,12,0,191897
12,12,0,191909
12,12,0,191910
12,12,0,191911
12,12,0,191922
12,12,0,191924
12,12,0,191925
12,12,0,191936
12,12,0,191938
12,13,-1,191939
13,13,0,191950
13,13,0,191953
13,13,0,191964
13,13,0,191965
13,13,0,191967
12,12,0,191978
12,12,0,191979
12,12,0,191980
12,12,0,191992
12,12,0,191993
12,12,0,191994
12,12,0,192006
12,12,0,192007
12,12,0,192008
12,12,0,192009
12,12,0,192021
11,12,-1,192022
11,11,0,192023
11,12,-1,192035
11,12,-1,192036
11,12,-1,192037
11,12,-1,192049
11,12,-1,192050
11,12,-1,192051
11,12,-1,192062
11,11,0,192064
11,11,0,192065
11,11,0,192076
11,11,0,192078
11,11,0,192079
11,11,0,192090
11,11,0,192091
11,11,0,192093
11,11,0,192104
11,11,0,192105
11,11,0,192107
11,11,0,192118
11,11,0,192119
11,11,0,192120
11,11,0,192132
11,11,0,192133
11,12,-1,192134
11,12,-1,192146
11,12,-1,192147
11,12,-1,192148
11,11,0,192160
11,11,0,192161
11,11,0,192162
10,11,-1,192174
10,10,0,192175
10,10,0,192176
10,10,0,192187
10,11,-1,192189
10,11,-1,192190
11,11,0,192191
11,11,0,192203
11,11,0,192204
10,11,-1,192205
10,11,-1,192216
10,11,-1,192218
10,11,-1,192219
10,11,-1,192230
10,11,-1,192232
10,11,-1,192233
10,11,-1,192244
10,11,-1,192245
10,10,0,192247
10,10,0,192258
10,10,0,192259
10,10,0,192261
10,10,0,192272
10,11,-1,192273
10,11,-1,192274
10,11,-1,192286
11,12,-1,192288
11,12,-1,192287
11,12,-1,192300
11,12,-1,192301
11,12,-1,192302
11,12,-1,192314
11,12,-1,192315
11,12,-1,192316
11,11,0,192328
10,11,-1,192329
10,11,-1,192330
10,12,-2,192341
11,12,-1,192343
11,12,-1,192344
11,12,-1,192355
11,12,-1,192357
11,12,-1,192358
11,12,-1,192369
11,12,-1,192371
11,12,-1,192372
11,12,-1,192383
11,12,-1,192384
11,12,-1,192386
11,12,-1,192397
11,12,-1,192398
11,12,-1,192400
11,12,-1,192411
11,12,-1,192412
11,12,-1,192414
11,12,-1,192425
11,12,-1,192426
11,12,-1,192427
11,12,-1,192439
11,12,-1,192440
11,12,-1,192441
11,12,-1,192453
11,12,-1,192467
11,12,-1,192455
11,12,-1,192454
11,13,-2,192468
11,13,-2,192469
11,13,-2,192481
11,13,-2,192482
11,13,-2,192483
11,12,-1,192494
11,12,-1,192496
11,12,-1,192497
10,12,-2,192508
10,12,-2,192510
10,12,-2,192511
11,12,-1,192522
11,13,-2,192523
11,13,-2,192525
11,13,-2,192536
11,13,-2,192537
11,13,-2,192539
11,13,-2,192550
11,13,-2,192551
11,13,-2,192553
11,13,-2,192554
12,13,-1,192566
12,13,-1,192565
12,13,-1,192568
11,13,-2,192584
11,12,-1,192585
11,12,-1,192586
11,12,-1,192588
11,13,-2,192599
12,14,-2,192600
14,15,-1,192601
15,16,-1,192613
16,17,-1,192614
16,17,-1,192615
16,17,-1,192627
16,18,-2,192628
17,18,-1,192629
17,18,-1,192641
17,18,-1,192642
18,19,-1,192643
18,19,-1,192655
19,20,-1,192656
19,21,-2,192657
20,21,-1,192668
20,21,-1,192670
20,21,-1,192671
20,21,-1,192682
20,21,-1,192684
20,21,-1,192685
20,21,-1,192696
20,22,-2,192697
21,22,-1,192699
21,23,-2,192710
22,23,-1,192711
22,24,-2,192713
23,25,-2,192724
23,25,-2,192725
23,25,-2,192738
24,26,-2,192726
23,25,-2,192739
23,25,-2,192740
22,24,-2,192752
22,24,-2,192753
22,24,-2,192754
21,24,-3,192766
21,24,-3,192767
21,24,-3,192768
21,24,-3,192780
21,24,-3,192781
21,24,-3,192794
20,23,-3,192795
20,23,-3,192796
20,23,-3,192807
20,23,-3,192809
20,23,-3,192810
20,23,-3,192821
20,24,-4,192823
20,24,-4,192824
20,24,-4,192835
20,23,-3,192836
19,23,-4,192849
19,23,-4,192838
19,23,-4,192850
19,23,-4,192852
20,23,-3,192863
20,23,-3,192864
20,23,-3,192865
20,23,-3,192877
20,23,-3,192878
20,23,-3,192879
20,24,-4,192893
20,23,-3,192891
20,23,-3,192892
21,24,-3,192906
20,24,-4,192905
21,24,-3,192907
21,24,-3,192919
22,25,-3,192920
22,25,-3,192921
22,25,-3,192932
22,24,-2,192934
22,24,-2,192935
22,24,-2,192946
22,24,-2,192948
22,24,-2,192949
22,24,-2,192960
22,25,-3,192961
22,25,-3,192963
23,25,-2,192974
23,25,-2,192975
22,24,-2,192977
22,24,-2,192988
22,24,-2,192989
22,24,-2,192991
22,24,-2,193002
23,24,-1,193003
23,25,-2,193004
23,24,-1,193016
23,24,-1,193017
23,24,-1,193018
23,24,-1,193030
22,24,-2,193031
22,24,-2,193032
23,24,-1,193044
23,24,-1,193045
23,24,-1,193046
23,24,-1,193058
23,24,-1,193059
23,25,-2,193060
23,25,-2,193071
23,25,-2,193073
23,25,-2,193074
24,26,-2,193075
24,26,-2,193087
25,27,-2,193088
25,26,-1,193089
24,26,-2,193101
24,26,-2,193102
24,25,-1,193103
23,25,-2,193114
23,26,-3,193116
24,27,-3,193117
25,28,-3,193128
26,28,-2,193130
26,28,-2,193131
27,29,-2,193142
27,29,-2,193143
27,29,-2,193145
27,29,-2,193156
27,29,-2,193157
28,30,-2,193159
29,31,-2,193171
28,31,-3,193170
29,32,-3,193172
29,32,-3,193184
29,32,-3,193185
29,32,-3,193186
29,31,-2,193198
29,32,-3,193199
29,32,-3,193200
29,32,-3,193212
29,32,-3,193213
28,31,-3,193226
28,31,-3,193227
29,32,-3,193214
28,31,-3,193239
29,32,-3,193241
29,32,-3,193253
29,32,-3,193255
29,31,-2,193256
28,31,-3,193267
27,30,-3,193269
27,30,-3,193270
27,30,-3,193281
27,30,-3,193282
27,30,-3,193284
27,29,-2,193295
27,29,-2,193296
27,29,-2,193298
26,28,-2,193309
26,28,-2,193310
26,28,-2,193311
26,28,-2,193323
26,28,-2,193324
26,28,-2,193325
26,28,-2,193337
26,28,-2,193338
26,28,-2,193339
26,28,-2,193351
26,28,-2,193352
26,28,-2,193353
26,28,-2,193365
26,28,-2,193366
26,28,-2,193367
26,28,-2,193379
26,28,-2,193380
26,28,-2,193381
26,28,-2,193392
26,27,-1,193394
25,27,-2,193395
25,26,-1,193406
24,26,-2,193409
24,26,-2,193420
24,26,-2,193421
24,26,-2,193423
24,26,-2,193434
24,25,-1,193435
24,25,-1,193437
24,25,-1,193448
23,25,-2,193449
23,25,-2,193450
23,25,-2,193462
23,25,-2,193463
22,25,-3,193464
22,25,-3,193476
22,25,-3,193477
23,25,-2,193478
23,25,-2,193490
23,25,-2,193491
23,25,-2,193492
23,25,-2,193504
23,25,-2,193505
23,25,-2,193506
23,26,-3,193517
24,26,-2,193519
24,27,-3,193520
25,27,-2,193531
25,28,-3,193533
25,28,-3,193534
25,28,-3,193545
25,28,-3,193547
25,28,-3,193548
24,28,-4,193559
24,28,-4,193560
24,28,-4,193562
24,28,-4,193563
24,28,-4,193576
24,28,-4,193574
25,30,-5,193577
26,31,-5,193588
27,32,-5,193589
28,32,-4,193591
28,33,-5,193602
29,33,-4,193603
29,32,-3,193605
28,32,-4,193616
28,32,-4,193617
29,33,-4,193618
29,33,-4,193631
29,33,-4,193630
30,34,-4,193632
30,34,-4,193644
30,34,-4,193645
30,34,-4,193646
29,33,-4,193658
29,33,-4,193659
28,32,-4,193660
28,32,-4,193672
28,32,-4,193673
28,33,-5,193674
29,33,-4,193687
28,33,-5,193685
29,33,-4,193688
28,32,-4,193699
28,32,-4,193701
28,32,-4,193702
28,32,-4,193713
27,31,-4,193714
26,29,-3,193716
25,28,-3,193727
25,28,-3,193728
24,27,-3,193730
24,27,-3,193741
24,27,-3,193742
24,26,-2,193744
24,26,-2,193755
23,25,-2,193756
22,24,-2,193757
22,23,-1,193769
21,23,-2,193770
21,22,-1,193771
21,22,-1,193783
20,22,-2,193784
20,22,-2,193785
20,21,-1,193797
20,21,-1,193798
19,20,-1,193799
19,20,-1,193811
19,19,0,193812
18,19,-1,193813
18,18,0,193824
17,18,-1,193826
17,18,-1,193827
17,18,-1,193838
18,18,0,193840
18,18,0,193841
18,18,0,193852
18,18,0,193854
17,17,0,193855
17,17,0,193866
16,17,-1,193867
16,16,0,193869
16,16,0,193880
16,16,0,193881
16,16,0,193882
16,16,0,193894
16,16,0,193895
15,15,0,193896
15,15,0,193898
15,15,0,193909
15,15,0,193910
15,15,0,193911
14,15,-1,193923
14,15,-1,193924
14,14,0,193925
14,14,0,193937
14,14,0,193938
14,14,0,193939
14,14,0,193951
14,14,0,193952
14,14,0,193953
13,13,0,193965
13,13,0,193966
12,13,-1,193967
12,12,0,193978
12,12,0,193980
12,12,0,193981
12,12,0,193992
12,12,0,193994
12,12,0,193995
11,11,0,194006
11,11,0,194007
11,10,1,194009
10,10,0,194020
9,9,0,194021
9,9,0,194022
9,10,-1,194024
10,10,0,194035
10,10,0,194036
10,10,0,194038
10,10,0,194049
10,10,0,194050
10,10,0,194052
10,10,0,194063
10,10,0,194064
10,10,0,194065
10,10,0,194077
11,11,0,194078
11,11,0,194079
12,12,0,194091
12,12,0,194092
12,12,0,194093
12,12,0,194105
12,12,0,194106
12,12,0,194107
11,12,-1,194118
11,12,-1,194120
12,12,0,194121
12,12,0,194132
12,12,0,194134
13,13,0,194135
13,13,0,194146
13,13,0,194147
14,14,0,194160
14,13,1,194161
13,13,0,194163
13,13,0,194164
13,13,0,194175
13,13,0,194177
12,13,-1,194178
12,13,-1,194189
12,12,0,194190
12,12,0,194192
12,12,0,194203
12,12,0,194204
12,12,0,194206
12,12,0,194217
12,12,0,194218
12,12,0,194219
12,12,0,194232
12,12,0,194231
12,12,0,194233
12,12,0,194245
12,12,0,194246
12,12,0,194247
12,12,0,194259
13,12,1,194260
13,12,1,194261
13,12,1,194272
13,12,1,194274
13,12,1,194275
12,12,0,194286
12,12,0,194288
12,12,0,194289
12,12,0,194300
12,12,0,194301
12,12,0,194303
13,12,1,194304
13,12,1,194315
13,12,1,194317
13,13,0,194329
14,13,1,194330
14,13,1,194332
14,13,1,194343
13,13,0,194344
13,13,0,194346
13,12,1,194357
12,12,0,194358
12,12,0,194359
12,12,0,194371
12,12,0,194372
12,12,0,194373
12,12,0,194385
12,12,0,194386
12,11,1,194387
11,11,0,194400
11,11,0,194399
11,10,1,194401
10,10,0,194413
10,10,0,194414
10,10,0,194415
10,10,0,194426
10,10,0,194428
10,10,0,194429
10,10,0,194440
10,9,1,194442
9,9,0,194443
9,9,0,194444
9,9,0,194455
9,9,0,194457
9,9,0,194458
9,10,-1,194469
10,10,0,194470
10,10,0,194472
10,10,0,194483
10,10,0,194484
10,10,0,194486
10,10,0,194497
10,9,1,194499
10,10,0,194498
9,9,0,194511
9,9,0,194512
9,9,0,194513
9,8,1,194515
8,8,0,194526
8,8,0,194527
8,8,0,194528
8,8,0,194540
8,8,0,194541
8,8,0,194542
8,9,-1,194554
9,9,0,194555
9,9,0,194556
9,10,-1,194568
10,10,0,194569
10,10,0,194570
10,10,0,194586
10,10,0,194587
10,10,0,194588
9,9,0,194589
9,9,0,194601
9,9,0,194602
8,8,0,194603
8,8,0,194615
8,8,0,194616
8,8,0,194617
8,8,0,194629
8,8,0,194630
8,9,-1,194631
9,9,0,194643
9,9,0,194644
9,9,0,194645
9,9,0,194646
9,10,-1,194658
10,10,0,194659
10,10,0,194672
10,10,0,194660
9,10,-1,194673
9,10,-1,194674
10,10,0,194685
10,10,0,194687
10,10,0,194688
10,10,0,194699
9,9,0,194701
9,9,0,194702
9,9,0,194713
9,9,0,194716
9,9,0,194714
9,9,0,194727
9,10,-1,194728
9,10,-1,194730
10,10,0,194731
10,10,0,194742
10,10,0,194743
10,10,0,194745
10,10,0,194756
10,10,0,194757
10,11,-1,194759
11,11,0,194770
11,11,0,194771
11,11,0,194772
11,11,0,194784
11,11,0,194785
11,11,0,194786
11,11,0,194798
11,11,0,194799
11,11,0,194800
11,11,0,194812
11,11,0,194813
11,11,0,194814
11,11,0,194826
11,11,0,194827
11,11,0,194828
11,11,0,194839
11,11,0,194841
11,11,0,194842
11,11,0,194853
11,11,0,194854
11,11,0,194856
11,11,0,194857
11,11,0,194868
11,10,1,194870
10,10,0,194871
10,10,0,194882
10,10,0,194884
10,10,0,194885
10,10,0,194896
10,10,0,194897
10,10,0,194899
10,9,1,194910
9,9,0,194911
9,9,0,194913
9,9,0,194924
9,9,0,194926
9,9,0,194925
9,9,0,194938
9,8,1,194939
9,8,1,194940
9,9,0,194941
9,9,0,194953
9,9,0,194954
9,9,0,194955
9,9,0,194967
9,9,0,194968
9,8,1,194969
9,8,1,194981
9,8,1,194982
9,9,0,194983
9,9,0,194995
9,9,0,194996
9,9,0,194997
9,9,0,194998
9,10,-1,195010
10,10,0,195011
10,10,0,195012
10,10,0,195024
10,10,0,195025
10,10,0,195037
10,10,0,195026
10,10,0,195039
10,10,0,195040
10,10,0,195051
10,10,0,195052
10,10,0,195054
10,10,0,195065
10,10,0,195066
11,10,1,195080
10,10,0,195068
11,10,1,195079
10,10,0,195081
10,10,0,195094
10,10,0,195095
10,10,0,195107
10,9,1,195108
10,9,1,195109
9,9,0,195110
9,9,0,195122
9,9,0,195123
9,9,0,195124
9,9,0,195136
9,9,0,195137
9,9,0,195138
9,9,0,195150
9,9,0,195151
9,9,0,195152
9,9,0,195164
9,9,0,195165
9,9,0,195166
9,9,0,195167
9,9,0,195179
9,9,0,195180
9,9,0,195181
9,9,0,195192
9,9,0,195194
9,9,0,195206
9,9,0,195195
9,9,0,195208
9,8,1,195209
8,8,0,195210
8,8,0,195221
8,8,0,195223
8,8,0,195224
8,8,0,195235
8,8,0,195237
8,9,-1,195238
9,9,0,195249
9,9,0,195250
9,9,0,195252
9,9,0,195263
9,9,0,195264
9,9,0,195266
9,9,0,195267
9,9,0,195278
9,9,0,195279
8,8,0,195281
8,8,0,195292
8,8,0,195293
8,8,0,195295
8,8,0,195306
8,8,0,195307
8,8,0,195308
8,8,0,195320
8,8,0,195321
8,8,0,195322
8,8,0,195324
8,8,0,195335
9,8,1,195337
9,8,1,195349
9,8,1,195350
9,9,0,195351
9,9,0,195363
9,9,0,195364
9,9,0,195365
9,9,0,195366
9,8,1,195378
8,8,0,195379
8,8,0,195380
8,8,0,195392
8,8,0,195393
8,8,0,195394
8,8,0,195406
8,8,0,195407
8,8,0,195408
8,8,0,195419
8,8,0,195421
8,8,0,195422
8,8,0,195423
8,8,0,195435
9,9,0,195436
9,9,0,195437
9,9,0,195448
9,9,0,195450
9,9,0,195451
9,9,0,195464
9,9,0,195462
9,9,0,195465
9,9,0,195476
9,9,0,195477
9,9,0,195479
9,9,0,195480
9,9,0,195491
9,9,0,195493
9,9,0,195494
9,9,0,195505
10,10,0,195506
10,10,0,195508
10,10,0,195519
11,10,1,195520
11,10,1,195521
11,10,1,195533
11,10,1,195534
11,10,1,195535
11,10,1,195547
11,10,1,195548
11,10,1,195549
11,10,1,195550
11,10,1,195562
11,10,1,195563
10,10,0,195564
10,10,0,195576
10,10,0,195577
10,10,0,195578
10,10,0,195590
11,10,1,195591
11,10,1,195592
11,10,1,195604
11,11,0,195605
11,11,0,195606
11,11,0,195631
12,11,1,195620
12,11,1,195619
12,11,1,195617
11,11,0,195633
11,11,0,195634
11,11,0,195645
11,11,0,195648
11,11,0,195659
11,11,0,195660
11,11,0,195662
12,11,1,195673
12,11,1,195675
12,11,1,195674
12,11,1,195687
12,11,1,195688
12,11,1,195689
12,11,1,195702
12,11,1,195703
12,11,1,195704
12,11,1,195716
12,11,1,195717
12,11,1,195730
12,11,1,195718
12,11,1,195731
12,11,1,195732
13,11,2,195744
13,12,1,195745
13,12,1,195746
13,12,1,195757
14,13,1,195759
14,13,1,195760
14,13,1,195771
15,14,1,195773
15,14,1,195774
15,14,1,195785
16,15,1,195800
15,14,1,195799
15,14,1,195788
16,15,1,195802
16,15,1,195813
16,15,1,195814
17,16,1,195815
18,16,2,195827
18,17,1,195828
19,18,1,195829
20,18,2,195831
20,18,2,195842
20,19,1,195843
22,21,1,195856
23,21,2,195857
23,22,1,195858
24,22,2,195870
23,21,2,195871
23,21,2,195872
23,22,1,195884
24,22,2,195885
23,22,1,195886
23,21,2,195898
23,21,2,195899
23,21,2,195911
23,21,2,195900
23,21,2,195913
23,21,2,195914
23,21,2,195925
23,22,1,195927
23,22,1,195939
23,22,1,195940
24,23,1,195942
25,24,1,195953
25,24,1,195954
24,24,0,195957
25,25,0,195968
24,24,0,195956
25,26,-1,195971
25,25,0,195982
24,24,0,195983
23,24,-1,195985
23,23,0,195996
22,22,0,195997
22,22,0,195998
22,23,-1,196010
22,23,-1,196011
22,23,-1,196012
22,23,-1,196024
23,24,-1,196025
23,24,-1,196026
23,25,-2,196038
24,25,-1,196039
25,26,-1,196040
25,26,-1,196052
26,26,0,196053
26,27,-1,196054
27,28,-1,196065
27,28,-1,196067
27,28,-1,196068
27,27,0,196079
26,26,0,196081
26,26,0,196082
26,26,0,196093
26,26,0,196094
26,26,0,196096
25,25,0,196107
25,25,0,196108
25,25,0,196110
26,26,0,196121
26,26,0,196122
27,26,1,196123
29,29,0,196137
27,27,0,196135
28,28,0,196136
30,29,1,196150
30,28,2,196151
30,28,2,196152
29,28,1,196164
29,28,1,196165
29,28,1,196166
29,28,1,196178
28,27,1,196179
27,26,1,196180
26,26,0,196192
26,25,1,196193
25,24,1,196194
25,24,1,196205
25,24,1,196207
26,25,1,196208
26,25,1,196219
26,25,1,196221
26,26,0,196222
26,26,0,196233
27,27,0,196234
27,27,0,196248
28,27,1,196247
27,27,0,196236
26,26,0,196261
26,26,0,196262
26,26,0,196263
26,26,0,196275
25,25,0,196276
25,25,0,196277
24,24,0,196289
24,24,0,196290
24,24,0,196291
24,24,0,196292
24,23,1,196304
24,23,1,196305
24,24,0,196306
25,25,0,196318
26,25,1,196319
26,26,0,196320
27,26,1,196332
28,26,2,196333
28,26,2,196334
28,26,2,196345
28,26,2,196347
28,26,2,196359
28,26,2,196348
27,24,3,196361
26,23,3,196362
25,23,2,196373
24,23,1,196374
24,23,1,196376
24,23,1,196387
24,23,1,196388
24,23,1,196390
22,22,0,196415
23,22,1,196403
24,23,1,196401
23,22,1,196402
24,24,0,196417
25,25,0,196429
26,26,0,196430
27,27,0,196431
27,28,-1,196432
27,28,-1,196444
27,27,0,196445
26,26,0,196459
26,27,-1,196458
27,27,0,196446
25,25,0,196472
24,25,-1,196473
24,24,0,196474
23,23,0,196486
22,23,-1,196487
22,23,-1,196488
22,24,-2,196499
23,25,-2,196501
23,25,-2,196502
23,25,-2,196513
23,25,-2,196515
26,27,-1,196528
25,26,-1,196527
24,25,-1,196516
27,28,-1,196530
27,29,-2,196541
28,29,-1,196542
28,29,-1,196544
28,28,0,196555
25,25,0,196557
24,25,-1,196569
24,25,-1,196571
24,25,-1,196587
25,25,0,196588
24,25,-1,196589
25,25,0,196591
25,25,0,196602
26,26,0,196603
26,26,0,196604
27,27,0,196616
27,27,0,196617
28,27,1,196618
28,27,1,196630
28,27,1,196631
28,27,1,196632
28,27,1,196644
28,27,1,196645
28,27,1,196646
28,26,2,196657
27,25,2,196659
26,24,2,196660
25,23,2,196671
24,22,2,196673
23,21,2,196674
22,20,2,196685
22,20,2,196686
22,20,2,196688
22,20,2,196699
22,20,2,196700
22,20,2,196702
22,20,2,196713
21,19,2,196714
21,19,2,196715
21,19,2,196727
21,19,2,196728
21,19,2,196729
21,19,2,196731
20,18,2,196742
19,18,1,196744
20,18,2,196743
19,18,1,196756
19,18,1,196757
19,18,1,196758
20,19,1,196770
21,19,2,196771
21,20,1,196784
21,20,1,196785
21,20,1,196786
21,20,1,196797
21,20,1,196799
20,20,0,196800
20,20,0,196811
20,20,0,196813
20,20,0,196814
21,20,1,196825
21,20,1,196826
21,20,1,196828
20,19,1,196839
20,19,1,196840
20,19,1,196842
19,18,1,196853
19,18,1,196855
18,17,1,196867
18,17,1,196868
18,17,1,196869
18,18,0,196871
19,19,0,196882
20,19,1,196883
20,19,1,196884
20,19,1,196896
20,19,1,196897
20,19,1,196898
19,18,1,196910
19,18,1,196911
18,17,1,196912
18,17,1,196924
18,17,1,196925
17,16,1,196926
17,16,1,196938
17,17,0,196939
18,17,1,196940
18,18,0,196951
19,19,0,196953
20,19,1,196954
20,20,0,196965
21,20,1,196967
21,21,0,196968
22,21,1,196980
22,21,1,196979
22,22,0,196982
23,22,1,196993
23,23,0,196994
24,23,1,196996
24,23,1,196997
24,23,1,197008
23,22,1,197009
23,22,1,197011
23,22,1,197022
23,22,1,197023
23,22,1,197025
23,21,2,197036
22,21,1,197037
22,21,1,197052
21,20,1,197051
21,20,1,197038
21,20,1,197050
23,21,2,197065
23,22,1,197066
23,22,1,197078
23,21,2,197079
22,21,1,197080
22,21,1,197093
22,21,1,197091
21,21,0,197094
21,21,0,197105
21,21,0,197107
22,22,0,197108
23,22,1,197119
23,22,1,197120
23,22,1,197122
22,22,0,197133
22,21,1,197134
22,22,0,197136
22,22,0,197137
23,22,1,197148
23,22,1,197149
21,20,1,197163
22,21,1,197151
22,21,1,197162
22,21,1,197176
22,21,1,197177
23,22,1,197178
23,21,2,197190
22,21,1,197191
22,21,1,197192
22,20,2,197204
21,20,1,197205
21,20,1,197206
21,20,1,197218
21,20,1,197219
20,19,1,197220
19,18,1,197231
19,18,1,197233
19,19,0,197234
20,20,0,197245
21,20,1,197247
21,20,1,197248
21,20,1,197259
20,19,1,197274
21,20,1,197273
21,20,1,197260
21,20,1,197262
20,19,1,197277
20,19,1,197288
20,19,1,197289
21,20,1,197291
21,21,0,197302
21,21,0,197303
21,21,0,197305
21,20,1,197316
20,20,0,197317
20,19,1,197318
19,19,0,197330
19,19,0,197331
19,19,0,197332
19,19,0,197344
19,19,0,197345
19,20,-1,197346
20,21,-1,197358
21,22,-1,197359
22,22,0,197360
22,22,0,197372
22,21,1,197373
20,20,0,197374
19,19,0,197385
18,18,0,197387
17,17,0,197388
17,18,-1,197399
18,18,0,197401
18,18,0,197402
18,18,0,197413
19,19,0,197414
19,19,0,197416
19,19,0,197417
19,19,0,197428
20,20,0,197431
19,19,0,197430
20,20,0,197442
21,20,1,197443
21,21,0,197445
21,21,0,197456
22,21,1,197457
22,21,1,197459
23,22,1,197470
24,23,1,197471
24,23,1,197472
24,24,0,197484
25,25,0,197485
25,25,0,197486
25,25,0,197498
25,25,0,197499
25,25,0,197500
25,25,0,197512
26,26,0,197513
28,27,1,197514
29,28,1,197526
30,29,1,197527
30,28,2,197528
30,28,2,197539
30,28,2,197541
30,28,2,197542
30,28,2,197553
30,28,2,197554
29,28,1,197556
30,28,2,197557
30,27,3,197568
29,27,2,197570
29,28,1,197571
29,28,1,197582
30,28,2,197583
30,29,1,197585
31,29,2,197596
31,29,2,197597
31,29,2,197599
30,28,2,197610
30,28,2,197611
30,28,2,197612
29,27,2,197624
29,26,3,197625
28,26,2,197626
28,26,2,197639
29,27,2,197640
28,26,2,197653
29,27,2,197652
28,26,2,197654
28,26,2,197666
27,26,1,197667
27,26,1,197668
28,27,1,197679
28,27,1,197681
28,27,1,197682
28,28,0,197693
28,28,0,197695
28,27,1,197697
28,28,0,197696
27,26,1,197708
26,25,1,197710
26,24,2,197711
25,23,2,197722
24,23,1,197724
24,23,1,197725
24,24,0,197736
25,24,1,197737
25,24,1,197739
26,25,1,197753
26,25,1,197751
25,25,0,197750
26,25,1,197764
26,25,1,197765
27,26,1,197766
27,25,2,197778
26,25,1,197779
26,24,2,197780
25,23,2,197792
24,22,2,197793
23,22,1,197794
22,21,1,197807
23,22,1,197806
22,20,2,197808
21,20,1,197819
20,19,1,197821
20,20,0,197822
21,20,1,197823
21,21,0,197835
22,23,-1,197836
24,24,0,197837
25,25,0,197849
26,26,0,197850
27,27,0,197851
27,27,0,197862
27,27,0,197864
26,27,-1,197865
26,27,-1,197876
28,29,-1,197878
29,30,-1,197879
30,32,-2,197890
31,33,-2,197891
32,33,-1,197893
32,33,-1,197904
32,33,-1,197905
31,33,-2,197907
31,32,-1,197918
31,32,-1,197919
31,32,-1,197920
31,32,-1,197932
31,32,-1,197933
31,32,-1,197934
31,32,-1,197946
31,32,-1,197947
31,32,-1,197948
32,33,-1,197960
32,33,-1,197961
32,32,0,197962
31,32,-1,197974
30,30,0,197975
29,29,0,197976
28,27,1,197987
27,27,0,197989
27,27,0,197990
28,28,0,198001
29,29,0,198003
29,29,0,198004
29,29,0,198015
28,27,1,198016
26,25,1,198018
25,24,1,198029
24,22,2,198030
23,22,1,198032
22,21,1,198033
22,21,1,198044
22,21,1,198045
23,22,1,198047
23,22,1,198058
23,22,1,198059
23,22,1,198061
23,22,1,198072
22,21,1,198073
22,21,1,198074
23,22,1,198086
23,22,1,198087
23,22,1,198088
23,22,1,198100
23,22,1,198101
23,22,1,198102
23,23,0,198114
24,23,1,198115
24,23,1,198116
24,24,0,198128
25,23,2,198129
24,22,2,198130
23,21,2,198141
23,21,2,198143
22,20,2,198144
22,20,2,198155
21,20,1,198157
21,20,1,198158
22,21,1,198169
22,21,1,198170
22,21,1,198172
22,21,1,198173
22,21,1,198184
22,21,1,198187
23,21,2,198198
23,22,1,198199
24,23,1,198201
24,23,1,198212
25,23,2,198213
25,24,1,198214
26,24,2,198226
26,24,2,198227
26,24,2,198228
26,24,2,198240
26,24,2,198241
25,24,1,198254
26,24,2,198242
25,24,1,198255
25,23,2,198256
24,22,2,198268
24,22,2,198269
23,22,1,198270
23,22,1,198281
24,23,1,198283
26,24,2,198284
27,25,2,198295
27,26,1,198297
27,26,1,198298
27,26,1,198309
27,26,1,198310
27,26,1,198312
27,25,2,198313
27,26,1,198324
27,26,1,198326
28,27,1,198327
29,27,2,198338
29,27,2,198339
29,27,2,198341
29,27,2,198352
27,25,2,198355
28,26,2,198353
27,25,2,198366
27,26,1,198367
28,27,1,198368
29,28,1,198380
29,28,1,198381
30,29,1,198382
30,29,1,198394
29,29,0,198395
29,28,1,198396
29,28,1,198408
29,28,1,198409
29,28,1,198410
28,27,1,198421
27,26,1,198423
26,26,0,198424
26,26,0,198435
26,26,0,198437
26,26,0,198438
26,26,0,198439
26,27,-1,198451
27,27,0,198452
27,26,1,198453
26,25,1,198464
25,24,1,198466
24,24,0,198467
24,25,-1,198478
25,26,-1,198480
27,28,-1,198481
28,29,-1,198492
30,31,-1,198493
31,31,0,198495
31,31,0,198506
30,31,-1,198507
32,32,0,198521
33,33,0,198522
31,32,-1,198520
34,34,0,198534
35,34,1,198535
36,35,1,198536
36,34,2,198548
36,34,2,198549
36,34,2,198550
35,34,1,198562
35,34,1,198563
36,34,2,198564
36,35,1,198576
36,36,0,198578
37,36,1,198594
37,36,1,198595
38,36,2,198596
38,36,2,198597
38,37,1,198609
39,37,2,198610
39,37,2,198611
38,35,3,198623
36,33,3,198624
35,32,3,198625
34,32,2,198638
34,32,2,198637
34,32,2,198639
34,32,2,198651
33,31,2,198652
33,31,2,198653
32,31,1,198664
31,30,1,198666
31,29,2,198667
31,30,1,198680
32,31,1,198681
32,32,0,198692
33,32,1,198693
33,32,1,198695
33,32,1,198706
33,31,2,198707
32,30,2,198709
33,32,1,198720
35,34,1,198721
37,35,2,198722
39,36,3,198724
40,37,3,198735
41,38,3,198736
42,39,3,198738
42,38,4,198749
42,38,4,198763
42,38,4,198751
42,38,4,198750
42,37,5,198764
41,37,4,198765
41,37,4,198777
42,38,4,198778
43,38,5,198779
42,37,5,198791
43,38,5,198792
43,39,4,198793
44,39,5,198805
45,40,5,198806
45,40,5,198807
45,40,5,198818
45,40,5,198820
45,40,5,198821
45,40,5,198832
45,40,5,198834
45,40,5,198835
45,40,5,198846
45,40,5,198847
44,39,5,198849
41,36,5,198860
39,34,5,198861
37,32,5,198863
35,31,4,198864
34,30,4,198875
33,29,4,198876
33,29,4,198878
32,29,3,198889
32,28,4,198890
32,28,4,198891
32,28,4,198903
33,28,5,198904
32,27,5,198905
31,26,5,198917
30,25,5,198918
29,25,4,198919
28,24,4,198931
27,23,4,198932
26,22,4,198933
25,22,3,198945
26,24,2,198946
27,24,3,198947
28,25,3,198958
28,26,2,198960
28,26,2,198961
29,26,3,198972
29,26,3,198974
28,25,3,198975
28,25,3,198986
28,25,3,198987
28,26,2,198989
29,26,3,199000
29,27,2,199001
30,28,2,199003
30,28,2,199004
30,28,2,199015
30,28,2,199016
30,28,2,199029
30,28,2,199018
31,30,1,199032
32,31,1,199043
33,32,1,199044
34,32,2,199045
36,34,2,199058
36,34,2,199059
36,34,2,199071
35,34,1,199072
35,33,2,199073
34,31,3,199085
32,29,3,199086
30,28,2,199087
29,28,1,199098
29,28,1,199100
30,28,2,199101
31,29,2,199112
32,30,2,199114
33,31,2,199115
33,32,1,199126
33,32,1,199130
33,31,2,199141
34,32,2,199127
33,32,1,199129
32,31,1,199144
32,31,1,199155
31,31,0,199157
31,31,0,199158
31,30,1,199169
30,29,1,199170
28,28,0,199172
27,27,0,199183
26,27,-1,199184
26,26,0,199186
26,26,0,199197
25,25,0,199199
25,26,-1,199198
25,25,0,199211
25,26,-1,199212
25,27,-2,199213
27,28,-1,199225
28,29,-1,199226
28,29,-1,199227
28,28,0,199239
27,27,0,199240
27,27,0,199241
27,26,1,199254
27,27,0,199253
27,26,1,199255
27,26,1,199266
28,27,1,199268
28,27,1,199269
28,27,1,199280
28,26,2,199282
28,27,1,199283
28,27,1,199284
29,28,1,199295
30,28,2,199297
31,29,2,199309
30,29,1,199298
31,29,2,199311
31,29,2,199312
30,28,2,199323
30,28,2,199324
30,28,2,199326
29,28,1,199337
29,27,2,199338
29,27,2,199340
29,27,2,199351
29,26,3,199352
28,26,2,199353
28,26,2,199365
28,26,2,199366
28,26,2,199367
28,26,2,199379
28,25,3,199380
27,25,2,199381
27,25,2,199393
27,24,3,199394
26,24,2,199395
25,23,2,199407
25,23,2,199408
25,23,2,199409
26,24,2,199422
25,24,1,199420
25,24,1,199424
26,24,2,199435
26,25,1,199437
27,26,1,199438
28,26,2,199449
28,27,1,199451
29,28,1,199452
30,28,2,199463
31,29,2,199466
32,30,2,199477
33,31,2,199478
33,32,1,199480
34,32,2,199491
34,33,1,199492
34,33,1,199493
34,33,1,199505
34,34,0,199506
34,34,0,199507
34,34,0,199519
34,34,0,199520
34,34,0,199521
33,34,-1,199533
33,33,0,199534
33,33,0,199535
33,33,0,199547
32,33,-1,199548
31,32,-1,199549
30,32,-2,199560
30,31,-1,199562
30,30,0,199563
29,29,0,199574
28,28,0,199576
27,28,-1,199577
26,27,-1,199578
26,26,0,199590
25,26,-1,199591
24,26,-2,199592
24,25,-1,199603
24,25,-1,199605
23,24,-1,199606
22,23,-1,199617
22,23,-1,199619
22,23,-1,199620
21,22,-1,199631
20,21,-1,199632
19,20,-1,199634
19,19,0,199646
19,20,-1,199645
18,19,-1,199648
19,20,-1,199659
20,20,0,199660
20,20,0,199661
21,21,0,199673
21,21,0,199674
21,21,0,199675
21,21,0,199687
21,21,0,199688
21,20,1,199689
20,19,1,199701
20,19,1,199702
20,19,1,199703
20,19,1,199714
20,20,0,199716
21,21,0,199717
22,21,1,199728
22,22,0,199730
23,22,1,199731
22,21,1,199742
22,21,1,199743
22,21,1,199745
22,21,1,199756
22,20,2,199757
21,20,1,199759
21,19,2,199760
20,19,1,199771
20,19,1,199772
20,18,2,199774
19,18,1,199785
19,17,2,199786
18,16,2,199788
17,16,1,199799
17,16,1,199800
17,16,1,199801
17,17,0,199813
18,18,0,199814
20,20,0,199815
21,21,0,199827
22,22,0,199828
23,23,0,199829
23,23,0,199841
24,23,1,199842
24,23,1,199843
23,23,0,199855
22,22,0,199856
21,21,0,199868
22,21,1,199857
21,21,0,199870
21,21,0,199871
21,21,0,199882
21,21,0,199884
21,21,0,199885
21,22,-1,199896
22,22,0,199897
22,22,0,199899
22,23,-1,199900
22,23,-1,199911
22,23,-1,199913
22,23,-1,199914
24,25,-1,199925
25,25,0,199926
25,25,0,199928
25,25,0,199939
25,25,0,199940
25,25,0,199942
24,23,1,199953
23,22,1,199954
22,21,1,199955
21,20,1,199967
20,19,1,199968
19,19,0,199969
19,18,1,199981
18,18,0,199982
18,18,0,199983
18,19,-1,199995
19,19,0,199996
19,19,0,199997
19,19,0,200009
18,19,-1,200010
18,18,0,200011
18,18,0,200022
18,18,0,200024
18,18,0,200025
18,19,-1,200036
19,19,0,200038
19,19,0,200039
19,19,0,200050
19,20,-1,200051
19,19,0,200053
18,18,0,200064
17,17,0,200065
16,17,-1,200067
16,17,-1,200068
16,17,-1,200079
16,16,0,200080
16,16,0,200082
16,16,0,200093
16,16,0,200094
16,16,0,200096
16,16,0,200107
15,16,-1,200108
15,16,-1,200109
15,16,-1,200121
16,17,-1,200123
16,16,0,200122
16,17,-1,200135
17,17,0,200136
17,17,0,200137
17,18,-1,200149
18,18,0,200150
18,18,0,200151
18,18,0,200163
18,18,0,200164
18,17,1,200165
17,17,0,200176
17,17,0,200190
17,17,0,200179
17,17,0,200178
17,17,0,200192
17,17,0,200193
17,17,0,200204
17,17,0,200205
17,17,0,200207
17,16,1,200218
16,16,0,200219
16,15,1,200220
16,15,1,200232
16,16,0,200234
16,15,1,200233
16,16,0,200236
17,16,1,200247
17,16,1,200248
17,16,1,200250
16,15,1,200261
15,14,1,200262
14,14,0,200263
14,13,1,200275
14,14,0,200276
14,14,0,200277
15,14,1,200291
15,14,1,200290
15,14,1,200289
15,14,1,200303
15,14,1,200304
15,15,0,200305
16,15,1,200316
16,15,1,200318
16,15,1,200319
15,15,0,200330
15,15,0,200332
15,15,0,200333
16,15,1,200345
15,15,0,200344
16,16,0,200347
16,16,0,200358
16,16,0,200359
16,16,0,200361
16,16,0,200362
16,16,0,200373
16,16,0,200374
16,16,0,200376
17,17,0,200387
17,17,0,200388
18,17,1,200390
18,17,1,200402
18,17,1,200401
18,17,1,200415
17,16,1,200416
16,16,0,200417
16,15,1,200429
16,15,1,200430
15,15,0,200431
15,15,0,200443
15,15,0,200444
15,14,1,200445
15,15,0,200457
15,16,-1,200458
16,16,0,200459
16,16,0,200470
16,16,0,200472
16,15,1,200473
15,15,0,200484
15,15,0,200486
15,15,0,200487
15,15,0,200498
15,15,0,200499
15,15,0,200501
15,14,1,200515
15,15,0,200502
15,15,0,200513
14,14,0,200516
14,13,1,200527
14,13,1,200528
13,13,0,200530
14,13,1,200541
13,13,0,200542
13,13,0,200544
13,13,0,200555
13,13,0,200557
13,13,0,200556
13,13,0,200569
14,14,0,200570
14,14,0,200571
14,14,0,200583
15,14,1,200584
15,14,1,200585
14,13,1,200601
13,13,0,200602
13,13,0,200603
13,13,0,200604
14,13,1,200618
13,13,0,200616
14,13,1,200617
14,13,1,200630
14,13,1,200631
14,13,1,200632
14,13,1,200644
13,13,0,200645
13,13,0,200646
13,13,0,200659
13,13,0,200658
14,14,0,200674
14,14,0,200673
13,13,0,200671
13,13,0,200660
14,14,0,200687
14,14,0,200688
14,14,0,200699
14,14,0,200700
14,13,1,200702
13,12,1,200714
13,13,0,200713
13,12,1,200716
13,12,1,200728
13,12,1,200727
13,12,1,200731
13,12,1,200742
13,12,1,200743
12,12,0,200745
12,12,0,200756
12,12,0,200757
13,12,1,200758
13,12,1,200770
13,12,1,200771
13,13,0,200785
13,13,0,200772
13,13,0,200784
13,13,0,200786
13,13,0,200798
13,13,0,200799
14,13,1,200800
14,13,1,200812
13,13,0,200813
13,13,0,200814
13,13,0,200825
13,13,0,200839
13,13,0,200828
13,13,0,200827
13,13,0,200841
13,13,0,200842
13,13,0,200853
13,13,0,200854
13,13,0,200856
14,14,0,200867
14,14,0,200868
15,15,0,200870
16,15,1,200882
15,15,0,200871
16,15,1,200883
16,15,1,200885
16,15,1,200896
16,15,1,200897
16,15,1,200898
15,15,0,200910
15,14,1,200911
15,14,1,200912
15,14,1,200924
15,14,1,200925
14,13,1,200926
14,13,1,200938
14,13,1,200953
14,13,1,200952
13,12,1,200940
14,12,2,200939
14,13,1,200954
14,13,1,200965
14,14,0,200967
14,14,0,200968
15,14,1,200979
16,15,1,200981
16,16,0,200982
17,16,1,200993
17,16,1,200996
17,16,1,200994
17,16,1,201007
16,15,1,201008
16,15,1,201010
16,15,1,201011
16,15,1,201022
16,15,1,201023
16,15,1,201025
16,15,1,201036
16,15,1,201037
16,15,1,201039
16,15,1,201050
16,15,1,201051
16,15,1,201052
16,15,1,201064
16,15,1,201065
16,16,0,201066
17,16,1,201078
17,16,1,201079
17,16,1,201080
17,16,1,201092
17,16,1,201093
17,16,1,201094
17,16,1,201105
17,16,1,201107
17,16,1,201108
16,15,1,201119
16,15,1,201121
15,15,0,201122
15,15,0,201133
15,15,0,201134
15,15,0,201136
15,14,1,201137
15,14,1,201148
14,13,1,201150
14,13,1,201151
14,13,1,201162
14,13,1,201164
14,13,1,201165
14,13,1,201176
14,14,0,201177
14,14,0,201179
14,14,0,201190
14,14,0,201191
14,14,0,201193
14,14,0,201204
14,13,1,201206
14,13,1,201219
14,13,1,201218
14,14,0,201220
14,14,0,201232
14,14,0,201233
14,14,0,201234
14,14,0,201246
14,14,0,201247
14,14,0,201248
14,14,0,201259
14,14,0,201261
14,14,0,201273
14,14,0,201262
14,14,0,201275
14,14,0,201276
14,14,0,201277
15,15,0,201288
15,15,0,201290
16,15,1,201291
16,15,1,201302
16,16,0,201316
16,16,0,201304
16,16,0,201305
16,16,0,201330
16,16,0,201317
16,16,0,201319
16,15,1,201331
15,15,0,201333
15,15,0,201344
16,16,0,201345
16,16,0,201346
16,16,0,201358
16,16,0,201359
16,15,1,201360
16,15,1,201372
16,15,1,201373
16,16,0,201386
16,16,0,201387
16,15,1,201374
16,15,1,201388
16,15,1,201399
16,14,2,201401
15,14,1,201402
15,14,1,201413
15,14,1,201415
15,14,1,201416
14,13,1,201417
13,13,0,201428
13,12,1,201430
13,12,1,201431
13,12,1,201442
13,12,1,201444
13,12,1,201445
13,12,1,201456
13,13,0,201457
13,13,0,201459
13,13,0,201470
13,13,0,201471
13,13,0,201473
13,12,1,201484
12,11,1,201486
12,12,0,201485
11,11,0,201499
11,11,0,201500
11,11,0,201512
11,11,0,201513
11,11,0,201514
10,10,0,201526
10,10,0,201527
10,10,0,201528
10,10,0,201540
10,10,0,201541
11,11,0,201555
10,10,0,201542
10,10,0,201543
11,11,0,201556
11,11,0,201557
11,11,0,201569
11,11,0,201570
11,11,0,201571
11,11,0,201582
11,11,0,201584
11,11,0,201585
11,10,1,201598
11,11,0,201596
11,10,1,201599
11,10,1,201610
11,10,1,201611
11,11,0,201613
11,11,0,201624
11,11,0,201625
11,11,0,201627
12,12,0,201640
12,12,0,201652
11,11,0,201638
12,12,0,201639
13,13,0,201654
13,13,0,201666
13,13,0,201667
13,13,0,201668
13,13,0,201680
14,14,0,201681
14,14,0,201682
14,13,1,201683
14,13,1,201695
14,13,1,201696
14,13,1,201697
14,13,1,201709
14,13,1,201710
13,13,0,201711
13,12,1,201722
13,12,1,201724
13,13,0,201725
13,13,0,201736
14,13,1,201738
14,13,1,201739
13,13,0,201750
13,13,0,201751
13,12,1,201753
13,12,1,201764
13,12,1,201765
13,12,1,201767
13,12,1,201778
12,12,0,201779
12,11,1,201780
12,11,1,201792
12,11,1,201793
12,11,1,201794
12,11,1,201806
11,11,0,201808
12,11,1,201807
11,10,1,201820
10,10,0,201821
10,10,0,201822
10,10,0,201823
10,10,0,201835
11,10,1,201836
11,11,0,201837
11,11,0,201849
12,11,1,201850
12,11,1,201851
12,11,1,201863
12,11,1,201864
12,11,1,201865
12,11,1,201876
12,11,1,201878
12,11,1,201879
12,12,0,201890
12,12,0,201891
12,12,0,201893
13,12,1,201904
13,12,1,201905
13,12,1,201907
13,12,1,201919
13,12,1,201920
13,12,1,201933
13,12,1,201932
13,13,0,201934
13,13,0,201946
13,13,0,201947
13,13,0,201948
14,13,1,201949
14,13,1,201961
14,13,1,201962
13,13,0,201963
13,12,1,201975
12,12,0,201977
13,12,1,201976
12,12,0,201989
12,12,0,201990
12,12,0,201991
12,12,0,202003
12,12,0,202004
12,12,0,202016
12,12,0,202018
12,12,0,202019
11,12,-1,202032
11,12,-1,202030
11,12,-1,202033
12,12,0,202044
12,13,-1,202046
13,13,0,202047
13,13,0,202058
12,13,-1,202059
12,12,0,202061
12,12,0,202072
12,12,0,202073
12,12,0,202075
12,12,0,202086
12,12,0,202087
12,12,0,202088
12,12,0,202100
11,11,0,202101
11,12,-1,202102
12,12,0,202104
12,13,-1,202115
13,13,0,202116
14,14,0,202117
14,14,0,202129
14,14,0,202130
14,14,0,202131
14,14,0,202143
15,15,0,202144
15,15,0,202145
15,15,0,202157
15,15,0,202158
14,14,0,202159
14,14,0,202170
13,13,0,202172
13,13,0,202173
12,12,0,202184
12,12,0,202186
11,12,-1,202187
12,12,0,202198
13,13,0,202201
12,13,-1,202199
13,13,0,202212
13,13,0,202213
13,13,0,202215
14,14,0,202227
15,15,0,202228
15,15,0,202240
15,15,0,202241
15,15,0,202242
15,14,1,202254
14,14,0,202255
14,13,1,202256
13,13,0,202257
13,12,1,202270
13,13,0,202269
13,12,1,202271
12,12,0,202283
12,12,0,202284
12,12,0,202285
13,13,0,202297
13,13,0,202298
14,13,1,202299
14,13,1,202311
14,14,0,202312
15,14,1,202313
14,13,1,202327
15,14,1,202324
15,14,1,202326
14,13,1,202339
13,13,0,202341
13,13,0,202352
13,13,0,202353
13,12,1,202355
12,12,0,202366
12,12,0,202367
12,12,0,202368
12,12,0,202380
12,12,0,202381
12,12,0,202382
12,12,0,202384
12,12,0,202395
12,12,0,202396
12,11,1,202398
12,11,1,202409
12,12,0,202410
12,12,0,202411
12,12,0,202423
12,12,0,202424
12,12,0,202425
12,11,1,202438
12,12,0,202437
11,11,0,202439
11,11,0,202451
11,12,-1,202452
12,12,0,202453
12,12,0,202464
12,12,0,202466
12,12,0,202467
11,12,-1,202478
11,12,-1,202480
11,11,0,202493
11,11,0,202492
11,12,-1,202481
11,11,0,202495
10,11,-1,202506
10,10,0,202507
10,10,0,202509
10,10,0,202520
10,10,0,202521
10,10,0,202522
10,10,0,202534
10,11,-1,202535
11,11,0,202536
11,12,-1,202550
11,11,0,202538
11,11,0,202549
12,12,0,202552
12,12,0,202563
12,12,0,202564
12,12,0,202565
13,13,0,202577
13,13,0,202578
13,13,0,202579
13,13,0,202591
13,13,0,202592
13,13,0,202593
13,13,0,202609
13,13,0,202610
13,13,0,202611
13,13,0,202612
13,13,0,202624
14,14,0,202625
14,14,0,202626
14,14,0,202638
15,14,1,202639
15,14,1,202640
15,14,1,202652
15,14,1,202653
14,14,0,202654
14,14,0,202666
14,13,1,202667
13,13,0,202668
13,13,0,202679
13,13,0,202681
13,13,0,202682
14,13,1,202693
13,13,0,202695
13,13,0,202696
12,13,-1,202708
12,13,-1,202707
12,13,-1,202710
12,13,-1,202721
12,12,0,202722
12,12,0,202724
12,12,0,202735
12,12,0,202736
12,12,0,202737
12,12,0,202749
12,12,0,202750
12,12,0,202751
12,12,0,202753
11,11,0,202764
11,11,0,202765
11,11,0,202766
11,11,0,202778
11,11,0,202779
12,12,0,202780
12,12,0,202792
12,12,0,202793
12,12,0,202794
12,12,0,202806
12,12,0,202807
12,12,0,202808
12,11,1,202820
12,11,1,202821
12,11,1,202822
12,11,1,202833
12,11,1,202835
12,11,1,202836
12,11,1,202847
11,11,0,202849
11,11,0,202850
11,11,0,202861
11,11,0,202862
11,11,0,202864
11,11,0,202875
12,12,0,202876
12,12,0,202878
12,12,0,202889
13,13,0,202890
13,13,0,202891
13,13,0,202893
13,13,0,202904
13,13,0,202905
13,13,0,202906
12,12,0,202918
12,12,0,202919
12,12,0,202920
12,12,0,202932
12,12,0,202933
12,12,0,202934
12,12,0,202946
12,12,0,202947
12,12,0,202948
12,12,0,202960
12,12,0,202961
12,12,0,202962
12,12,0,202973
12,12,0,202975
12,12,0,202976
12,12,0,202987
12,12,0,202989
12,12,0,202990
12,11,1,203002
11,11,0,203004
11,11,0,203015
11,11,0,203016
11,11,0,203018
11,11,0,203029
11,11,0,203030
11,11,0,203031
11,11,0,203033
11,12,-1,203044
12,12,0,203045
12,12,0,203047
12,12,0,203058
12,12,0,203059
12,12,0,203060
12,12,0,203072
12,12,0,203073
12,12,0,203074
12,12,0,203087
12,12,0,203086
12,11,1,203088
11,11,0,203100
11,11,0,203101
11,11,0,203102
11,11,0,203113
11,11,0,203115
11,11,0,203116
11,11,0,203127
11,11,0,203129
11,11,0,203130
11,11,0,203144
11,11,0,203142
11,11,0,203141
11,10,1,203155
10,10,0,203156
10,10,0,203158
11,10,1,203169
11,10,1,203170
11,10,1,203171
10,10,0,203184
10,10,0,203185
10,10,0,203187
11,11,0,203198
11,11,0,203199
11,11,0,203200
11,11,0,203212
12,11,1,203213
12,11,1,203214
12,11,1,203226
12,11,1,203227
12,11,1,203228
12,11,1,203240
11,11,0,203242
11,11,0,203254
11,11,0,203255
11,11,0,203256
11,11,0,203267
12,12,0,203269
12,12,0,203270
12,12,0,203281
12,12,0,203283
12,11,1,203295
11,11,0,203296
11,11,0,203299
11,11,0,203310
11,11,0,203298
12,11,1,203312
12,11,1,203313
12,11,1,203324
12,11,1,203325
11,11,0,203327
11,11,0,203338
11,11,0,203341
11,11,0,203352
11,11,0,203353
11,11,0,203354
11,11,0,203366
11,11,0,203367
12,11,1,203368
12,11,1,203380
12,12,0,203381
12,12,0,203382
12,12,0,203394
12,12,0,203395
12,11,1,203396
11,11,0,203408
11,11,0,203409
11,10,1,203410
12,11,1,203435
11,11,0,203424
11,10,1,203421
11,11,0,203423
12,11,1,203438
11,11,0,203439
11,11,0,203450
11,11,0,203452
12,11,1,203453
12,12,0,203464
12,12,0,203465
13,13,0,203478
13,13,0,203467
13,13,0,203479
13,13,0,203481
14,13,1,203492
14,13,1,203493
14,13,1,203494
14,13,1,203507
14,13,1,203508
14,13,1,203520
14,13,1,203521
14,13,1,203522
14,14,0,203534
14,14,0,203535
14,14,0,203536
15,14,1,203548
15,14,1,203549
14,14,0,203561
14,14,0,203563
13,14,-1,203564
13,14,-1,203575
13,14,-1,203577
14,14,0,203578
14,14,0,203579
13,13,0,203590
13,12,1,203593
13,13,0,203592
12,12,0,203604
12,12,0,203606
12,12,0,203607
12,12,0,203618
12,12,0,203619
12,12,0,203621
12,12,0,203632
12,12,0,203633
13,13,0,203646
13,13,0,203635
13,13,0,203647
13,13,0,203648
13,13,0,203660
13,12,1,203661
12,12,0,203662
12,12,0,203674
12,12,0,203675
12,12,0,203676
13,13,0,203690
13,13,0,203701
12,12,0,203688
13,12,1,203689
13,13,0,203704
13,13,0,203715
13,12,1,203717
13,12,1,203718
13,12,1,203719
13,12,1,203730
13,12,1,203732
12,12,0,203733
12,12,0,203744
12,12,0,203746
12,12,0,203747
12,12,0,203758
11,11,0,203759
11,11,0,203761
11,10,1,203772
10,10,0,203773
10,10,0,203775
10,10,0,203786
10,10,0,203787
10,10,0,203788
10,10,0,203800
10,10,0,203801
10,10,0,203802
10,10,0,203814
10,10,0,203815
10,10,0,203816
10,9,1,203828
9,9,0,203829
9,9,0,203830
9,9,0,203831
9,9,0,203843
9,8,1,203844
9,9,0,203857
9,9,0,203845
9,9,0,203858
9,9,0,203859
9,9,0,203871
9,9,0,203872
9,9,0,203873
9,9,0,203884
9,9,0,203886
9,9,0,203887
9,9,0,203888
10,10,0,203900
10,10,0,203901
10,10,0,203902
11,10,1,203913
11,11,0,203915
11,11,0,203916
11,11,0,203927
11,11,0,203929
11,11,0,203930
11,11,0,203941
11,11,0,203942
11,11,0,203944
11,11,0,203955
10,10,0,203956
10,10,0,203958
10,10,0,203969
10,10,0,203970
10,10,0,203971
11,11,0,203983
11,11,0,203984
11,10,1,203985
10,10,0,203997
10,10,0,203998
10,10,0,203999
10,10,0,204012
10,10,0,204013
10,10,0,204000
11,10,1,204014
10,10,0,204028
10,10,0,204027
10,9,1,204040
9,9,0,204042
9,8,1,204053
8,8,0,204055
8,8,0,204056
8,8,0,204067
8,8,0,204069
8,8,0,204070
8,8,0,204081
8,8,0,204082
8,8,0,204084
8,8,0,204085
8,8,0,204098
8,8,0,204096
8,8,0,204099
8,8,0,204110
8,8,0,204111
8,8,0,204113
8,8,0,204124
8,8,0,204125
8,8,0,204128
8,8,0,204139
8,8,0,204140
8,8,0,204153
8,8,0,204156
8,8,0,204154
8,8,0,204167
8,8,0,204168
8,8,0,204169
8,8,0,204181
8,8,0,204182
8,8,0,204183
8,8,0,204184
8,8,0,204196
8,8,0,204197
8,8,0,204198
8,8,0,204210
8,8,0,204211
8,8,0,204212
8,8,0,204224
8,8,0,204225
8,8,0,204226
8,8,0,204238
8,8,0,204239
8,8,0,204240
8,8,0,204241
8,8,0,204253
8,8,0,204254
8,8,0,204255
8,8,0,204267
8,8,0,204268
8,8,0,204269
8,8,0,204280
8,8,0,204282
8,8,0,204283
8,8,0,204284
8,8,0,204296
8,8,0,204297
8,8,0,204298
8,8,0,204309
8,8,0,204311
8,8,0,204312
8,8,0,204323
8,8,0,204325
8,8,0,204326
8,8,0,204337
8,8,0,204338
8,8,0,204340
8,8,0,204341
8,8,0,204354
8,8,0,204352
8,8,0,204355
8,8,0,204366
8,8,0,204367
8,8,0,204369
8,8,0,204380
8,8,0,204381
8,8,0,204383
8,8,0,204384
8,8,0,204396
8,8,0,204395
8,8,0,204398
8,8,0,204409
8,8,0,204410
8,8,0,204412
8,8,0,204423
8,8,0,204425
8,8,0,204437
8,8,0,204438
8,8,0,204439
8,8,0,204441
8,8,0,204452
8,8,0,204453
8,8,0,204454
8,8,0,204467
8,8,0,204466
8,8,0,204468
8,8,0,204480
8,8,0,204481
8,8,0,204482
8,9,-1,204494
9,9,0,204495
9,9,0,204496
9,9,0,204497
8,8,0,204509
8,8,0,204510
8,8,0,204525
8,8,0,204524
8,8,0,204511
8,8,0,204523
8,8,0,204538
8,8,0,204539
8,8,0,204540
8,8,0,204552
8,8,0,204553
8,8,0,204554
8,8,0,204565
8,8,0,204567
8,8,0,204579
8,8,0,204568
8,8,0,204582
8,8,0,204593
8,8,0,204594
8,8,0,204596
8,8,0,204597
8,8,0,204613
8,8,0,204614
8,8,0,204615
8,7,1,204616
7,7,0,204628
7,7,0,204629
7,8,-1,204630
8,8,0,204642
8,8,0,204643
8,8,0,204644
8,9,-1,204656
8,9,-1,204657
8,9,-1,204658
8,9,-1,204670
8,9,-1,204671
8,9,-1,204672
8,8,0,204687
8,8,0,204685
8,8,0,204673
8,8,0,204686
8,8,0,204700
8,8,0,204701
8,8,0,204712
8,8,0,204714
8,8,0,204715
8,8,0,204726
8,8,0,204728
8,8,0,204729
8,8,0,204741
8,8,0,204730
8,8,0,204743
9,9,0,204744
9,9,0,204755
9,9,0,204757
10,10,0,204758
10,10,0,204769
10,9,1,204770
9,9,0,204772
9,9,0,204783
9,9,0,204784
9,9,0,204786
9,9,0,204787
9,9,0,204798
9,9,0,204799
9,9,0,204801
9,9,0,204812
9,10,-1,204813
10,10,0,204815
10,10,0,204826
10,10,0,204827
10,10,0,204828
10,10,0,204840
10,10,0,204841
10,10,0,204842
10,10,0,204854
10,10,0,204855
10,10,0,204856
10,10,0,204868
10,10,0,204869
10,10,0,204870
10,11,-1,204871
11,11,0,204883
11,11,0,204884
11,11,0,204885
11,11,0,204897
11,11,0,204898
11,11,0,204899
11,11,0,204911
11,11,0,204912
11,11,0,204913
11,11,0,204924
11,11,0,204926
11,11,0,204927
11,11,0,204938
12,12,0,204940
12,12,0,204952
12,12,0,204941
12,12,0,204953
12,12,0,204955
12,12,0,204966
12,12,0,204967
12,12,0,204980
12,12,0,204981
12,12,0,204982
12,12,0,204994
12,12,0,204996
12,12,0,204995
12,12,0,205008
12,11,1,205009
12,11,1,205010
11,11,0,205011
11,11,0,205024
11,11,0,205025
12,12,0,205037
12,12,0,205038
12,12,0,205039
12,12,0,205051
12,12,0,205052
13,12,1,205053
13,13,0,205064
13,13,0,205066
13,13,0,205067
12,12,0,205078
12,11,1,205080
12,11,1,205081
12,12,0,205092
12,13,-1,205093
13,13,0,205095
14,14,0,205106
14,14,0,205107
14,15,-1,205109
15,15,0,205134
15,15,0,205122
15,15,0,205121
15,15,0,205135
16,16,0,205136
16,16,0,205148
16,16,0,205149
15,16,-1,205150
15,15,0,205151
15,15,0,205163
15,15,0,205164
15,15,0,205165
15,15,0,205177
15,15,0,205178
15,15,0,205179
15,15,0,205191
15,15,0,205192
15,15,0,205193
15,15,0,205205
15,16,-1,205206
16,16,0,205207
16,16,0,205218
16,16,0,205220
15,14,1,205232
15,15,0,205221
14,14,0,205234
13,13,0,205235
13,12,1,205246
12,12,0,205247
12,13,-1,205249
12,13,-1,205260
12,13,-1,205261
13,13,0,205275
13,13,0,205263
13,13,0,205274
13,13,0,205276
13,14,-1,205288
14,14,0,205289
14,14,0,205290
14,14,0,205302
14,14,0,205303
14,14,0,205304
13,13,0,205305
13,13,0,205317
13,13,0,205318
13,13,0,205319
13,13,0,205331
14,14,0,205346
13,14,-1,205345
13,13,0,205332
13,13,0,205333
14,14,0,205358
14,14,0,205360
14,14,0,205361
14,14,0,205372
14,14,0,205374
15,15,0,205375
15,16,-1,205386
15,16,-1,205387
15,16,-1,205400
15,16,-1,205401
15,16,-1,205389
15,15,0,205403
15,15,0,205414
15,16,-1,205415
15,16,-1,205417
15,16,-1,205428
15,16,-1,205429
15,16,-1,205430
15,16,-1,205443
15,15,0,205444
15,15,0,205456
15,15,0,205457
15,15,0,205458
15,14,1,205470
14,14,0,205471
14,14,0,205472
14,14,0,205483
14,14,0,205485
14,14,0,205486
14,14,0,205487
14,14,0,205499
14,14,0,205500
15,15,0,205501
15,15,0,205513
14,14,0,205515
14,13,1,205526
13,13,0,205528
13,13,0,205529
13,13,0,205540
13,13,0,205541
13,13,0,205543
13,12,1,205554
12,12,0,205557
12,12,0,205555
12,12,0,205568
12,12,0,205569
12,12,0,205570
12,12,0,205582
12,12,0,205583
12,12,0,205584
12,12,0,205596
13,12,1,205597
13,12,1,205598
13,12,1,205610
12,12,0,205613
12,12,0,205625
13,12,1,205612
12,12,0,205627
12,11,1,205639
11,11,0,205640
11,11,0,205641
11,10,1,205653
10,10,0,205654
10,10,0,205655
10,10,0,205668
10,10,0,205666
10,9,1,205669
9,9,0,205680
9,9,0,205682
10,9,1,205683
10,10,0,205694
10,10,0,205695
11,11,0,205697
11,11,0,205708
11,11,0,205709
11,11,0,205711
11,11,0,205723
10,11,-1,205724
11,11,0,205722
10,11,-1,205736
10,11,-1,205737
10,11,-1,205738
10,11,-1,205740
10,11,-1,205751
10,11,-1,205752
10,11,-1,205753
10,11,-1,205765
10,11,-1,205766
10,11,-1,205767
11,11,0,205780
11,11,0,205781
11,11,0,205779
11,11,0,205794
11,12,-1,205807
11,12,-1,205795
11,12,-1,205808
11,12,-1,205809
11,12,-1,205820
11,12,-1,205822
11,11,0,205823
10,11,-1,205834
10,10,0,205836
10,10,0,205837
9,10,-1,205848
9,10,-1,205850
9,10,-1,205851
9,10,-1,205862
9,10,-1,205863
9,10,-1,205865
9,10,-1,205876
9,10,-1,205877
9,10,-1,205879
9,9,0,205890
9,9,0,205891
9,9,0,205892
9,9,0,205904
9,9,0,205905
9,9,0,205906
9,9,0,205908
9,9,0,205919
9,9,0,205920
9,9,0,205921
9,9,0,205933
9,9,0,205934
9,9,0,205935
9,9,0,205948
9,9,0,205949
9,9,0,205950
9,10,-1,205962
10,10,0,205963
10,11,-1,205964
11,11,0,205976
11,11,0,205977
11,12,-1,205978
12,12,0,205990
12,12,0,205991
12,12,0,205992
12,12,0,206004
12,12,0,206005
12,12,0,206006
12,12,0,206017
12,12,0,206019
11,12,-1,206020
11,12,-1,206031
11,12,-1,206033
11,12,-1,206034
11,12,-1,206045
11,12,-1,206046
11,12,-1,206048
11,12,-1,206059
11,12,-1,206062
11,11,0,206073
11,11,0,206074
11,11,0,206075
11,12,-1,206087
11,12,-1,206088
12,12,0,206089
12,12,0,206101
12,12,0,206102
11,11,0,206103
11,11,0,206115
10,10,0,206116
10,9,1,206117
9,9,0,206130
9,9,0,206118
9,9,0,206131
9,9,0,206132
9,9,0,206144
9,9,0,206145
9,9,0,206146
9,9,0,206157
9,9,0,206159
10,10,0,206160
10,10,0,206173
10,10,0,206171
10,10,0,206174
10,10,0,206185
9,9,0,206186
9,9,0,206188
9,9,0,206189
9,9,0,206200
9,9,0,206202
9,9,0,206203
9,9,0,206214
9,9,0,206215
9,9,0,206228
9,9,0,206229
9,9,0,206231
9,9,0,206242
9,9,0,206243
9,9,0,206244
9,9,0,206246
9,9,0,206257
9,9,0,206258
9,9,0,206260
9,9,0,206272
9,9,0,206273
9,9,0,206285
9,9,0,206286
9,9,0,206300
9,9,0,206287
9,9,0,206289
9,9,0,206301
9,9,0,206302
9,9,0,206314
9,9,0,206315
9,9,0,206316
9,9,0,206328
9,9,0,206329
9,9,0,206330
9,9,0,206342
9,9,0,206343
9,9,0,206344
9,9,0,206345
9,9,0,206357
9,9,0,206358
9,9,0,206359
9,9,0,206371
9,9,0,206372
9,9,0,206373
9,9,0,206385
9,9,0,206386
9,9,0,206388
9,9,0,206387
9,9,0,206400
9,9,0,206401
9,9,0,206402
9,9,0,206414
9,9,0,206415
9,9,0,206416
9,9,0,206427
9,9,0,206429
9,9,0,206430
9,9,0,206441
9,9,0,206442
9,8,1,206444
8,8,0,206445
8,8,0,206456
8,8,0,206458
9,8,1,206459
9,8,1,206470
9,8,1,206472
9,8,1,206473
9,8,1,206484
9,9,0,206485
9,9,0,206487
9,9,0,206498
9,9,0,206499
9,9,0,206500
9,9,0,206502
9,9,0,206513
9,9,0,206514
9,9,0,206516
9,9,0,206527
9,9,0,206528
9,9,0,206529
8,9,-1,206541
8,9,-1,206542
8,9,-1,206543
8,9,-1,206555
8,9,-1,206556
8,9,-1,206557
8,9,-1,206558
8,9,-1,206570
8,9,-1,206571
9,9,0,206572
9,9,0,206584
9,9,0,206585
9,9,0,206586
9,9,0,206598
9,9,0,206600
9,9,0,206599
9,9,0,206616
9,9,0,206617
9,9,0,206618
8,8,0,206619
8,8,0,206631
8,8,0,206632
8,8,0,206633
8,8,0,206645
8,8,0,206647
8,8,0,206646
8,8,0,206659
8,8,0,206660
8,8,0,206661
8,8,0,206662
8,8,0,206674
8,8,0,206675
8,8,0,206676
8,8,0,206688
8,8,0,206689
8,8,0,206690
8,9,-1,206702
8,9,-1,206703
8,9,-1,206716
8,9,-1,206704
8,9,-1,206717
8,9,-1,206718
8,9,-1,206719
8,8,0,206731
8,8,0,206732
8,8,0,206733
8,8,0,206745
8,8,0,206746
8,8,0,206747
8,8,0,206758
8,8,0,206760
8,8,0,206761
8,8,0,206772
8,8,0,206774
8,8,0,206775
8,8,0,206776
8,8,0,206787
8,8,0,206789
8,8,0,206790
8,8,0,206801
8,8,0,206803
8,8,0,206815
8,8,0,206804
8,8,0,206816
8,8,0,206818
8,8,0,206829
8,8,0,206830
8,8,0,206831
8,8,0,206833
8,8,0,206844
8,8,0,206845
8,8,0,206847
8,8,0,206858
8,8,0,206859
8,8,0,206860
8,8,0,206872
8,8,0,206873
8,8,0,206874
8,8,0,206876
8,8,0,206887
8,8,0,206888
8,8,0,206889
8,8,0,206901
8,8,0,206902
8,8,0,206903
8,8,0,206915
8,8,0,206916
8,8,0,206917
8,8,0,206929
8,8,0,206930
8,8,0,206931
8,8,0,206932
8,8,0,206944
8,8,0,206945
8,8,0,206946
8,8,0,206958
9,9,0,206959
9,9,0,206974
9,9,0,206973
9,9,0,206960
9,9,0,206971
9,9,0,206985
9,9,0,206987
9,9,0,206988
9,8,1,206989
9,8,1,207000
8,8,0,207002
8,8,0,207003
8,8,0,207014
8,8,0,207017
8,8,0,207016
8,8,0,207028
8,8,0,207029
8,8,0,207031
8,8,0,207032
9,8,1,207045
9,8,1,207043
9,8,1,207057
9,8,1,207058
9,8,1,207046
9,8,1,207060
9,8,1,207071
9,8,1,207072
9,8,1,207074
9,8,1,207085
9,8,1,207086
8,8,0,207087
8,8,0,207089
8,8,0,207100
8,8,0,207101
8,8,0,207103
8,8,0,207114
8,8,0,207116
8,8,0,207115
8,8,0,207128
8,8,0,207129
8,8,0,207130
8,8,0,207132
8,8,0,207143
8,8,0,207144
8,8,0,207145
8,8,0,207157
8,8,0,207158
8,8,0,207159
8,8,0,207171
8,8,0,207172
8,8,0,207173
8,8,0,207185
8,8,0,207186
8,8,0,207187
8,8,0,207188
8,8,0,207200
8,8,0,207201
8,8,0,207202
8,8,0,207214
8,8,0,207215
8,8,0,207228
8,8,0,207216
8,8,0,207229
8,8,0,207230
8,8,0,207241
8,8,0,207243
8,8,0,207244
8,8,0,207245
8,8,0,207256
8,8,0,207258
8,8,0,207259
8,8,0,207270
8,8,0,207284
8,8,0,207272
8,8,0,207273
8,8,0,207285
8,8,0,207287
8,8,0,207288
8,8,0,207299
8,8,0,207301
8,8,0,207302
8,9,-1,207313
9,9,0,207314
9,9,0,207316
9,9,0,207327
9,9,0,207328
9,9,0,207330
9,9,0,207341
9,9,0,207342
9,9,0,207343
8,8,0,207345
8,8,0,207356
8,8,0,207359
8,8,0,207370
8,9,-1,207371
8,9,-1,207372
8,9,-1,207384
9,9,0,207385
9,9,0,207386
9,9,0,207398
9,9,0,207399
9,9,0,207400
9,9,0,207401
9,9,0,207413
9,9,0,207414
9,9,0,207415
9,9,0,207427
9,9,0,207428
8,9,-1,207429
8,8,0,207441
8,8,0,207442
8,8,0,207443
8,8,0,207454
8,8,0,207456
8,8,0,207457
8,8,0,207458
8,8,0,207470
8,8,0,207471
9,9,0,207472
9,9,0,207483
9,9,0,207485
9,9,0,207486
8,8,0,207498
8,8,0,207497
8,8,0,207512
8,8,0,207501
8,8,0,207500
8,8,0,207514
8,8,0,207515
8,8,0,207526
8,8,0,207528
8,8,0,207529
8,9,-1,207540
8,9,-1,207541
8,9,-1,207543
8,9,-1,207554
9,9,0,207558
9,9,0,207557
8,9,-1,207555
9,9,0,207569
9,9,0,207571
9,9,0,207572
9,9,0,207583
9,9,0,207584
9,9,0,207586
9,9,0,207597
8,8,0,207598
8,8,0,207599
8,8,0,207611
8,8,0,207612
8,8,0,207613
8,8,0,207615
9,8,1,207626
9,8,1,207627
9,8,1,207628
9,8,1,207640
9,8,1,207641
9,8,1,207642
9,8,1,207654
9,8,1,207655
9,8,1,207656
9,8,1,207668
9,9,0,207669
9,9,0,207670
9,9,0,207671
9,9,0,207683
9,9,0,207684
9,8,1,207685
8,8,0,207697
8,8,0,207698
8,8,0,207699
8,8,0,207710
8,8,0,207712
8,8,0,207714
8,8,0,207713
8,8,0,207726
8,8,0,207727
8,8,0,207728
8,8,0,207740
8,8,0,207741
8,8,0,207742
8,8,0,207753
8,8,0,207755
8,8,0,207756
8,8,0,207767
8,8,0,207768
8,8,0,207770
8,8,0,207771
8,9,-1,207782
8,9,-1,207784
8,9,-1,207785
8,9,-1,207796
8,8,0,207798
8,8,0,207799
8,8,0,207810
8,8,0,207812
8,8,0,207824
8,8,0,207813
8,8,0,207825
8,8,0,207827
8,8,0,207828
8,8,0,207839
8,8,0,207840
8,8,0,207842
8,8,0,207853
8,8,0,207856
8,8,0,207867
8,8,0,207868
8,8,0,207882
8,8,0,207869
8,8,0,207871
8,8,0,207883
8,8,0,207885
8,8,0,207896
8,8,0,207911
8,8,0,207897
8,8,0,207898
8,8,0,207910
8,8,0,207924
8,8,0,207925
8,8,0,207927
8,8,0,207926
8,8,0,207939
8,8,0,207940
8,8,0,207941
8,8,0,207953
8,8,0,207954
8,8,0,207955
8,8,0,207967
8,8,0,207968
8,8,0,207969
8,8,0,207981
8,8,0,207982
8,8,0,207983
8,8,0,207984
8,8,0,207996
8,8,0,207997
8,8,0,207998
8,8,0,208010
8,8,0,208011
8,8,0,208012
8,8,0,208023
8,8,0,208025
8,8,0,208026
8,8,0,208027
8,8,0,208039
9,8,1,208040
9,8,1,208041
9,8,1,208052
8,8,0,208054
8,8,0,208066
8,8,0,208067
8,8,0,208069
8,9,-1,208080
8,9,-1,208081
8,9,-1,208083
8,9,-1,208084
8,9,-1,208095
8,9,-1,208097
8,9,-1,208098
8,9,-1,208109
8,9,-1,208110
8,9,-1,208112
8,9,-1,208123
8,9,-1,208124
8,9,-1,208126
8,9,-1,208138
8,8,0,208140
8,9,-1,208137
8,8,0,208151
8,8,0,208152
8,8,0,208154
9,8,1,208155
9,8,1,208166
8,8,0,208167
8,8,0,208169
8,8,0,208180
8,8,0,208181
8,8,0,208183
8,8,0,208195
8,8,0,208196
8,8,0,208198
8,8,0,208209
8,8,0,208210
8,8,0,208212
8,8,0,208223
8,8,0,208224
8,8,0,208225
8,8,0,208237
8,8,0,208238
8,8,0,208239
8,8,0,208251
8,8,0,208252
8,8,0,208253
8,8,0,208254
8,8,0,208266
8,8,0,208267
8,8,0,208280
8,8,0,208281
8,8,0,208282
8,8,0,208294
8,8,0,208295
8,8,0,208296
9,8,1,208297
9,8,1,208309
9,9,0,208310
9,9,0,208311
9,9,0,208323
9,9,0,208324
9,9,0,208325
9,9,0,208337
9,9,0,208338
9,9,0,208339
9,9,0,208350
9,9,0,208352
9,9,0,208353
9,9,0,208354
9,9,0,208366
9,9,0,208367
9,9,0,208368
9,9,0,208379
9,9,0,208381
9,9,0,208382
9,9,0,208393
9,9,0,208395
9,9,0,208407
9,9,0,208396
9,9,0,208408
9,9,0,208410
9,9,0,208411
9,9,0,208422
9,9,0,208423
9,9,0,208425
9,9,0,208436
9,9,0,208437
8,8,0,208439
8,8,0,208450
8,8,0,208451
8,8,0,208452
8,8,0,208454
8,8,0,208465
8,8,0,208466
8,8,0,208468
8,8,0,208479
8,8,0,208480
8,8,0,208481
8,8,0,208493
8,9,-1,208494
9,9,0,208507
9,9,0,208495
8,8,0,208508
8,8,0,208509
8,8,0,208510
8,8,0,208522
8,8,0,208524
8,8,0,208536
8,9,-1,208537
9,9,0,208538
9,9,0,208550
9,9,0,208551
8,8,0,208563
8,8,0,208565
8,8,0,208552
8,8,0,208567
8,8,0,208579
8,8,0,208580
8,8,0,208581
8,8,0,208592
8,8,0,208594
8,8,0,208595
9,9,0,208606
9,9,0,208608
9,9,0,208609
9,8,1,208610
8,8,0,208626
8,8,0,208627
8,8,0,208628
8,8,0,208629
8,8,0,208641
8,8,0,208642
8,8,0,208643
9,8,1,208655
9,8,1,208656
9,8,1,208657
8,8,0,208670
8,8,0,208669
8,8,0,208672
8,8,0,208684
8,8,0,208685
8,8,0,208686
8,8,0,208698
8,8,0,208699
8,8,0,208700
8,8,0,208712
8,8,0,208713
8,8,0,208714
8,8,0,208725
8,8,0,208727
8,8,0,208728
8,8,0,208729
8,8,0,208741
8,8,0,208742
8,8,0,208743
8,8,0,208754
8,8,0,208756
8,8,0,208757
8,8,0,208768
8,8,0,208770
8,8,0,208785
8,8,0,208783
8,8,0,208772
8,8,0,208771
8,8,0,208786
8,8,0,208797
8,8,0,208799
8,8,0,208800
8,8,0,208811
8,8,0,208812
8,8,0,208814
8,8,0,208825
8,8,0,208840
8,8,0,208829
8,8,0,208828
8,8,0,208826
8,8,0,208843
8,8,0,208854
8,8,0,208855
8,8,0,208857
8,8,0,208868
8,8,0,208869
8,8,0,208870
8,8,0,208882
8,8,0,208897
8,8,0,208886
8,8,0,208883
8,8,0,208884
8,8,0,208898
8,8,0,208899
8,8,0,208912
8,8,0,208913
8,8,0,208925
8,8,0,208926
8,8,0,208927
8,8,0,208940
8,8,0,208928
9,8,1,208954
9,8,1,208941
9,8,1,208942
9,8,1,208955
9,9,0,208956
9,9,0,208968
9,9,0,208969
9,9,0,208970
9,9,0,208981
9,9,0,208983
9,9,0,208997
9,9,0,208985
9,9,0,208984
9,9,0,208999
9,9,0,209010
9,9,0,209012
9,9,0,209013
9,9,0,209024
9,9,0,209026
9,9,0,209027
9,9,0,209038
9,9,0,209039
8,8,0,209042
8,8,0,209041
8,8,0,209053
8,8,0,209055
8,8,0,209056
8,8,0,209067
7,8,-1,209068
7,8,-1,209070
8,8,0,209081
9,9,0,209096
8,8,0,209082
8,8,0,209083
8,9,-1,209085
9,9,0,209111
9,9,0,209099
9,9,0,209110
9,9,0,209124
9,9,0,209125
9,9,0,209126
9,9,0,209138
9,9,0,209139
9,9,0,209140
9,9,0,209141
9,9,0,209154
9,9,0,209153
9,9,0,209155
9,9,0,209167
9,9,0,209168
9,9,0,209169
9,9,0,209181
9,9,0,209182
9,9,0,209183
9,9,0,209195
9,9,0,209196
10,10,0,209197
10,10,0,209198
10,10,0,209210
10,10,0,209211
10,10,0,209212
10,9,1,209224
9,9,0,209225
9,9,0,209226
9,8,1,209237
8,8,0,209239
8,8,0,209240
8,8,0,209251
8,8,0,209253
8,8,0,209254
8,8,0,209255
9,9,0,209266
9,9,0,209268
9,9,0,209269
9,9,0,209280
9,9,0,209282
9,9,0,209283
9,9,0,209294
9,9,0,209295
9,9,0,209297
9,9,0,209308
9,9,0,209309
9,9,0,209311
9,9,0,209312
9,9,0,209323
9,9,0,209324
9,9,0,209326
9,9,0,209337
9,9,0,209338
9,9,0,209340
9,9,0,209351
9,9,0,209352
9,9,0,209353
9,9,0,209365
9,9,0,209366
9,10,-1,209367
9,10,-1,209369
10,10,0,209380
10,10,0,209381
10,10,0,209382
10,10,0,209394
10,9,1,209395
9,9,0,209396
9,9,0,209408
9,9,0,209409
9,8,1,209410
9,8,1,209422
9,8,1,209423
9,8,1,209424
9,9,0,209435
9,9,0,209437
9,9,0,209438
9,9,0,209439
9,9,0,209450
9,10,-1,209452
10,10,0,209453
10,10,0,209464
10,10,0,209466
10,10,0,209467
11,11,0,209492
10,10,0,209481
10,10,0,209478
10,10,0,209479
11,11,0,209495
11,11,0,209506
11,11,0,209507
11,11,0,209508
11,11,0,209520
11,11,0,209521
11,11,0,209522
11,11,0,209535
11,11,0,209534
11,11,0,209536
11,12,-1,209537
12,12,0,209549
12,12,0,209550
13,13,0,209551
13,13,0,209563
14,14,0,209564
14,14,0,209565
14,14,0,209577
14,14,0,209578
14,14,0,209579
14,14,0,209591
14,14,0,209593
14,14,0,209592
14,14,0,209604
14,14,0,209606
14,14,0,209607
14,14,0,209618
14,14,0,209620
13,13,0,209621
13,13,0,209632
13,13,0,209646
13,13,0,209633
13,13,0,209635
13,13,0,209647
13,13,0,209649
14,13,1,209660
14,14,0,209661
14,14,0,209662
14,14,0,209674
14,14,0,209675
14,14,0,209676
14,14,0,209677
14,13,1,209689
13,13,0,209691
13,12,1,209703
12,12,0,209704
13,13,0,209719
13,13,0,209718
12,12,0,209705
13,13,0,209717
13,13,0,209731
13,13,0,209732
13,13,0,209733
13,13,0,209744
13,13,0,209746
13,13,0,209747
13,13,0,209758
13,13,0,209760
13,13,0,209761
13,13,0,209772
13,13,0,209773
13,13,0,209775
13,13,0,209786
13,13,0,209787
13,13,0,209789
14,13,1,209800
14,14,0,209801
14,14,0,209802
14,14,0,209814
14,14,0,209815
15,15,0,209830
15,15,0,209829
14,14,0,209816
14,14,0,209817
15,15,0,209843
14,15,-1,209844
14,14,0,209845
14,14,0,209857
14,14,0,209858
14,14,0,209859
14,14,0,209871
14,15,-1,209884
14,15,-1,209873
14,15,-1,209872
15,16,-1,209887
16,16,0,209898
16,17,-1,209900
17,17,0,209901
17,17,0,209912
17,17,0,209913
17,17,0,209915
17,17,0,209926
17,16,1,209929
16,16,0,209940
17,16,1,209927
17,17,0,209942
17,17,0,209954
18,17,1,209955
18,17,1,209956
18,17,1,209968
18,17,1,209969
18,17,1,209970
18,18,0,209971
18,18,0,209984
18,18,0,209983
19,18,1,209985
19,18,1,209997
19,18,1,209998
19,18,1,209999
19,18,1,210011
20,19,1,210012
20,19,1,210013
20,19,1,210025
20,19,1,210026
20,18,2,210027
19,17,2,210038
19,17,2,210040
18,16,2,210052
19,17,2,210041
18,17,1,210054
19,17,2,210055
19,17,2,210066
19,17,2,210067
19,18,1,210069
19,17,2,210080
19,17,2,210081
19,17,2,210083
19,17,2,210094
19,18,1,210109
19,17,2,210108
19,17,2,210096
19,17,2,210095
19,18,1,210112
19,17,2,210123
19,17,2,210124
19,17,2,210125
18,17,1,210137
18,17,1,210138
18,16,2,210139
17,16,1,210151
17,16,1,210152
17,16,1,210153
16,16,0,210165
16,16,0,210166
16,16,0,210167
17,16,1,210179
17,17,0,210180
18,17,1,210181
18,17,1,210192
17,18,-1,210195
18,18,0,210206
18,18,0,210208
17,18,-1,210209
17,18,-1,210221
17,18,-1,210220
17,18,-1,210223
18,18,0,210234
17,18,-1,210235
17,17,0,210237
16,16,0,210248
16,16,0,210249
15,16,-1,210250
15,16,-1,210262
15,16,-1,210264
15,16,-1,210263
15,16,-1,210276
15,15,0,210277
15,15,0,210278
15,15,0,210279
14,14,0,210291
14,14,0,210292
14,14,0,210293
14,14,0,210306
14,14,0,210307
14,14,0,210319
14,14,0,210320
14,14,0,210321
13,13,0,210333
13,13,0,210334
12,12,0,210335
12,12,0,210346
12,12,0,210348
12,12,0,210349
11,11,0,210360
11,12,-1,210362
12,12,0,210363
12,12,0,210374
12,12,0,210375
12,12,0,210377
12,12,0,210388
12,12,0,210389
12,12,0,210391
12,13,-1,210402
12,13,-1,210403
12,13,-1,210404
12,13,-1,210416
12,13,-1,210417
12,13,-1,210418
12,13,-1,210430
13,13,0,210431
13,13,0,210432
13,13,0,210444
13,13,0,210445
13,14,-1,210446
14,14,0,210447
14,14,0,210459
14,15,-1,210460
14,15,-1,210461
14,15,-1,210473
14,14,0,210474
14,14,0,210475
14,14,0,210487
13,14,-1,210488
13,13,0,210489
12,12,0,210502
13,13,0,210500
12,12,0,210503
12,12,0,210514
12,12,0,210516
12,12,0,210517
12,12,0,210528
12,12,0,210529
11,12,-1,210531
11,11,0,210542
11,11,0,210543
11,12,-1,210556
11,11,0,210545
11,12,-1,210557
12,13,-1,210558
13,13,0,210570
13,14,-1,210571
14,14,0,210572
14,14,0,210584
13,13,0,210585
13,13,0,210586
13,13,0,210598
12,12,0,210599
12,12,0,210600
12,12,0,210611
12,12,0,210613
12,12,0,210614
13,13,0,210615
13,13,0,210631
14,14,0,210632
14,15,-1,210633
16,16,0,210646
16,16,0,210647
16,16,0,210648
16,16,0,210660
16,16,0,210661
16,15,1,210662
16,15,1,210674
16,15,1,210675
16,15,1,210676
16,15,1,210688
15,15,0,210690
15,14,1,210701
14,13,1,210703
14,13,1,210704
13,13,0,210715
13,13,0,210729
13,13,0,210717
13,13,0,210718
13,12,1,210730
13,12,1,210732
12,12,0,210743
12,12,0,210744
13,12,1,210746
13,12,1,210757
13,12,1,210758
13,12,1,210759
12,11,1,210771
11,10,1,210773
11,10,1,210772
10,9,1,210775
10,9,1,210786
10,9,1,210787
10,10,0,210788
10,10,0,210800
11,10,1,210801
11,10,1,210802
11,10,1,210814
11,10,1,210815
11,10,1,210816
11,11,0,210830
11,10,1,210828
11,11,0,210829
11,11,0,210842
12,11,1,210843
12,11,1,210844
12,11,1,210855
12,11,1,210857
11,11,0,210858
11,11,0,210869
11,11,0,210871
11,11,0,210872
11,11,0,210883
11,11,0,210884
11,11,0,210886
11,11,0,210897
11,11,0,210898
11,11,0,210899
11,12,-1,210901
13,14,-1,210913
13,14,-1,210915
14,14,0,210926
14,14,0,210927
14,14,0,210929
14,14,0,210940
14,14,0,210941
14,14,0,210942
14,14,0,210954
14,14,0,210955
14,14,0,210956
14,14,0,210968
13,13,0,210969
13,13,0,210970
12,13,-1,210983
12,13,-1,210982
12,13,-1,210984
13,13,0,210995
13,13,0,210997
13,14,-1,210998
14,14,0,211009
14,15,-1,211011
14,15,-1,211012
15,15,0,211023
15,15,0,211026
15,15,0,211037
15,15,0,211038
15,15,0,211040
14,13,1,211052
15,14,1,211051
13,12,1,211053
12,12,0,211065
12,12,0,211066
12,11,1,211067
12,11,1,211069
11,11,0,211080
11,11,0,211081
11,11,0,211082
12,12,0,211094
12,12,0,211095
13,13,0,211109
12,12,0,211096
12,12,0,211108
13,13,0,211122
13,13,0,211123
13,13,0,211124
13,13,0,211135
13,13,0,211137
12,12,0,211138
12,12,0,211149
12,12,0,211151
11,11,0,211163
11,11,0,211152
11,11,0,211164
11,11,0,211166
11,11,0,211177
11,12,-1,211178
12,12,0,211180
12,12,0,211191
12,12,0,211192
12,13,-1,211193
13,13,0,211205
13,14,-1,211206
13,14,-1,211207
14,14,0,211219
14,15,-1,211220
14,15,-1,211221
14,15,-1,211222
14,14,0,211235
13,14,-1,211236
13,14,-1,211248
13,13,0,211249
13,13,0,211250
13,13,0,211262
13,14,-1,211263
13,14,-1,211264
14,14,0,211276
14,14,0,211277
14,14,0,211278
14,14,0,211289
14,14,0,211291
14,15,-1,211292
15,15,0,211303
15,15,0,211305
15,15,0,211306
15,15,0,211317
14,14,0,211320
14,14,0,211331
14,14,0,211318
13,13,0,211332
12,13,-1,211334
12,12,0,211345
12,12,0,211346
12,12,0,211347
12,12,0,211359
12,12,0,211360
12,13,-1,211361
13,13,0,211374
13,13,0,211373
13,13,0,211375
13,13,0,211387
13,13,0,211388
13,13,0,211389
13,13,0,211390
13,13,0,211402
12,12,0,211403
12,12,0,211404
12,12,0,211416
12,12,0,211417
12,12,0,211418
11,11,0,211430
11,11,0,211431
11,11,0,211432
10,11,-1,211443
10,11,-1,211445
10,11,-1,211446
11,11,0,211457
11,11,0,211459
11,11,0,211471
11,11,0,211472
11,10,1,211474
10,10,0,211485
10,10,0,211488
10,10,0,211486
9,9,0,211499
9,9,0,211500
9,9,0,211501
8,9,-1,211513
9,9,0,211514
9,9,0,211515
9,10,-1,211516
10,10,0,211528
10,10,0,211529
10,10,0,211530
10,10,0,211543
10,10,0,211544
10,10,0,211542
10,10,0,211557
10,10,0,211558
11,11,0,211571
11,11,0,211572
11,11,0,211583
11,11,0,211585
12,12,0,211586
13,13,0,211600
12,12,0,211597
13,13,0,211599
14,14,0,211625
14,14,0,211614
14,13,1,211611
14,14,0,211612
14,14,0,211628
14,13,1,211629
14,13,1,211640
14,14,0,211641
14,14,0,211643
14,14,0,211654
14,14,0,211655
14,14,0,211657
14,14,0,211669
14,14,0,211668
14,14,0,211670
15,14,1,211682
15,15,0,211683
15,15,0,211684
15,15,0,211696
16,15,1,211697
16,16,0,211698
16,16,0,211710
16,16,0,211711
18,17,1,211726
17,17,0,211725
17,17,0,211723
16,16,0,211712
18,18,0,211737
18,18,0,211739
19,18,1,211740
19,18,1,211751
19,19,0,211752
19,19,0,211754
19,19,0,211765
19,19,0,211766
20,20,0,211768
20,20,0,211769
20,19,1,211780
19,18,1,211781
18,18,0,211783
19,19,0,211794
19,19,0,211795
19,19,0,211797
20,20,0,211808
20,20,0,211809
21,21,0,211810
21,21,0,211822
24,24,0,211837
23,23,0,211836
22,22,0,211824
26,26,0,211850
26,26,0,211851
27,26,1,211852
26,26,0,211863
26,25,1,211865
26,25,1,211866
25,25,0,211877
25,25,0,211879
25,25,0,211880
26,27,-1,211894
25,25,0,211892
25,25,0,211891
28,28,0,211905
29,30,-1,211906
31,31,0,211908
32,33,-1,211909
34,34,0,211920
36,35,1,211922
36,35,1,211923
37,35,2,211934
37,36,1,211935
39,37,2,211949
38,36,2,211937
38,36,2,211948
39,37,2,211962
39,37,2,211963
39,36,3,211964
38,35,3,211976
37,33,4,211977
35,32,3,211990
36,32,4,211978
34,31,3,211991
33,30,3,212004
34,30,4,211992
32,29,3,212006
33,30,3,212017
33,30,3,212019
34,30,4,212020
34,30,4,212031
33,29,4,212033
32,27,5,212034
30,26,4,212045
29,25,4,212046
28,23,5,212048
24,21,3,212060
26,22,4,212049
23,20,3,212062
23,21,2,212063
23,21,2,212074
24,22,2,212075
24,22,2,212077
23,21,2,212088
22,20,2,212089
22,20,2,212091
21,20,1,212102
22,20,2,212103
22,21,1,212104
22,21,1,212116
23,22,1,212117
25,24,1,212118
26,26,0,212130
27,27,0,212131
29,28,1,212132
30,28,2,212144
30,28,2,212145
30,28,2,212146
30,29,1,212157
33,32,1,212173
32,31,1,212171
30,29,1,212159
31,30,1,212160
33,33,0,212174
34,33,1,212185
34,33,1,212186
35,34,1,212188
35,34,1,212189
34,33,1,212200
33,32,1,212202
32,31,1,212203
31,30,1,212214
31,30,1,212215
31,31,0,212228
31,30,1,212217
32,32,0,212229
32,32,0,212231
31,31,0,212242
31,31,0,212243
31,31,0,212244
30,30,0,212256
29,28,1,212257
28,27,1,212258
27,27,0,212270
26,26,0,212271
26,26,0,212272
26,26,0,212284
25,26,-1,212285
25,25,0,212286
25,25,0,212298
25,25,0,212299
24,24,0,212300
23,24,-1,212311
23,23,0,212313
23,23,0,212325
23,23,0,212327
23,24,-1,212328
23,24,-1,212340
24,25,-1,212342
25,26,-1,212343
26,26,0,212354
26,26,0,212356
26,26,0,212357
27,26,1,212368
27,26,1,212369
27,26,1,212371
27,26,1,212382
27,26,1,212383
27,26,1,212385
27,26,1,212396
27,26,1,212397
26,25,1,212398
26,25,1,212410
27,26,1,212411
28,27,1,212412
30,28,2,212424
30,29,1,212425
30,28,2,212438
30,28,2,212439
30,29,1,212451
32,30,2,212454
31,30,1,212453
32,30,2,212465
32,31,1,212467
32,31,1,212468
32,31,1,212479
31,30,1,212480
30,29,1,212482
29,29,0,212483
29,28,1,212494
28,27,1,212496
27,26,1,212497
27,26,1,212508
26,26,0,212510
26,25,1,212511
25,25,0,212522
25,25,0,212523
25,24,1,212525
24,24,0,212536
24,24,0,212537
24,24,0,212538
24,24,0,212550
23,23,0,212551
22,22,0,212552
21,21,0,212564
20,20,0,212566
20,21,-1,212565
20,20,0,212578
19,19,0,212579
18,19,-1,212580
17,18,-1,212593
17,17,0,212594
17,17,0,212605
17,17,0,212607
17,17,0,212608
17,17,0,212619
17,17,0,212621
16,16,0,212623
17,17,0,212622
16,16,0,212639
16,16,0,212640
16,15,1,212641
15,15,0,212642
15,15,0,212654
15,16,-1,212655
16,17,-1,212656
18,18,0,212668
19,19,0,212669
20,19,1,212683
20,20,0,212682
20,20,0,212670
19,19,0,212684
19,19,0,212696
19,18,1,212697
18,18,0,212698
18,18,0,212709
18,18,0,212711
18,18,0,212712
18,18,0,212723
18,17,1,212725
18,18,0,212737
18,18,0,212726
19,18,1,212738
19,18,1,212740
19,18,1,212751
19,18,1,212752
19,18,1,212754
19,18,1,212765
19,18,1,212766
19,19,0,212767
19,19,0,212779
19,20,-1,212780
20,20,0,212781
20,20,0,212783
20,20,0,212794
20,19,1,212795
18,18,0,212796
17,17,0,212808
17,16,1,212809
16,16,0,212810
16,16,0,212822
16,16,0,212823
16,17,-1,212824
16,17,-1,212836
17,17,0,212837
17,17,0,212838
17,17,0,212849
17,17,0,212851
17,17,0,212852
16,16,0,212863
16,16,0,212865
16,17,-1,212866
17,17,0,212877
17,18,-1,212878
18,19,-1,212880
19,19,0,212891
20,20,0,212892
20,21,-1,212894
21,21,0,212905
21,21,0,212906
21,21,0,212907
21,21,0,212919
20,20,0,212920
20,20,0,212921
20,20,0,212933
19,19,0,212934
19,19,0,212935
19,19,0,212936
19,19,0,212948
19,18,1,212949
18,18,0,212950
18,18,0,212962
18,17,1,212963
18,17,1,212964
17,17,0,212976
17,17,0,212977
17,18,-1,212978
17,18,-1,212990
18,19,-1,212991
19,19,0,212992
19,19,0,213003
19,19,0,213005
19,19,0,213006
18,18,0,213017
17,17,0,213019
17,16,1,213020
16,16,0,213031
16,16,0,213032
16,15,1,213034
15,15,0,213045
15,16,-1,213046
15,16,-1,213048
15,16,-1,213059
15,16,-1,213060
16,16,0,213061
16,17,-1,213073
17,17,0,213074
17,18,-1,213075
17,18,-1,213087
17,18,-1,213088
17,18,-1,213089
18,18,0,213101
18,18,0,213102
18,18,0,213103
17,18,-1,213115
17,18,-1,213116
17,17,0,213117
17,17,0,213118
16,17,-1,213130
16,16,0,213131
16,16,0,213132
15,15,0,213145
15,15,0,213146
14,14,0,213157
14,14,0,213160
14,15,-1,213171
14,15,-1,213173
15,15,0,213174
15,15,0,213185
15,15,0,213186
15,16,-1,213188
16,16,0,213199
16,16,0,213200
16,16,0,213202
15,15,0,213213
15,15,0,213214
15,15,0,213215
15,15,0,213227
15,15,0,213228
15,15,0,213229
14,14,0,213241
14,14,0,213242
14,15,-1,213243
15,16,-1,213256
16,16,0,213257
17,16,1,213268
17,17,0,213270
17,17,0,213271
17,17,0,213282
17,17,0,213284
17,17,0,213285
17,17,0,213286
17,17,0,213298
16,16,0,213299
16,16,0,213300
16,16,0,213311
16,16,0,213313
16,16,0,213314
16,16,0,213325
15,15,0,213327
15,15,0,213328
15,15,0,213339
15,15,0,213340
15,15,0,213342
16,16,0,213353
16,16,0,213354
16,16,0,213355
17,17,0,213367
17,17,0,213368
17,18,-1,213369
18,18,0,213381
18,18,0,213382
18,17,1,213383
16,16,0,213396
17,16,1,213395
16,16,0,213397
16,16,0,213409
16,16,0,213410
16,16,0,213411
17,16,1,213422
17,16,1,213424
17,16,1,213426
17,16,1,213438
17,16,1,213439
17,16,1,213440
16,15,1,213451
16,15,1,213453
16,15,1,213454
16,15,1,213465
16,15,1,213467
16,15,1,213468
16,15,1,213479
16,15,1,213480
16,15,1,213482
15,15,0,213493
15,14,1,213494
14,13,1,213507
15,14,1,213496
14,13,1,213508
14,13,1,213509
14,13,1,213521
14,14,0,213522
15,14,1,213523
15,14,1,213535
15,14,1,213536
15,14,1,213537
15,13,2,213549
14,12,2,213550
14,12,2,213552
14,12,2,213551
14,13,1,213564
14,13,1,213565
14,13,1,213566
14,13,1,213578
14,13,1,213579
15,13,2,213580
15,14,1,213592
15,14,1,213594
15,14,1,213607
15,14,1,213605
14,13,1,213608
14,13,1,213619
14,13,1,213621
14,13,1,213622
14,13,1,213633
14,13,1,213634
14,13,1,213636
14,13,1,213647
14,13,1,213650
14,13,1,213661
14,13,1,213662
14,13,1,213663
15,14,1,213675
15,14,1,213677
15,14,1,213676
16,15,1,213689
16,15,1,213690
17,16,1,213691
18,17,1,213692
18,18,0,213704
19,18,1,213705
19,18,1,213706
19,18,1,213718
19,18,1,213719
19,18,1,213720
19,18,1,213732
19,18,1,213733
20,19,1,213734
20,19,1,213745
20,19,1,213747
21,20,1,213748
21,20,1,213759
21,20,1,213761
21,21,0,213762
22,22,0,213773
23,22,1,213774
23,23,0,213776
24,23,1,213787
24,23,1,213788
24,23,1,213790
23,22,1,213801
22,21,1,213802
22,21,1,213803
22,21,1,213815
21,20,1,213816
21,20,1,213817
21,21,0,213829
21,20,1,213830
20,19,1,213831
18,18,0,213844
19,19,0,213832
18,18,0,213845
18,18,0,213846
18,19,-1,213858
19,19,0,213859
19,19,0,213860
20,20,0,213872
20,20,0,213873
20,20,0,213874
20,20,0,213885
20,20,0,213887
20,20,0,213899
20,20,0,213888
20,20,0,213901
20,19,1,213902
20,20,0,213913
21,20,1,213914
22,21,1,213916
23,22,1,213927
23,23,0,213928
24,23,1,213930
25,24,1,213941
25,24,1,213942
26,25,1,213955
26,25,1,213943
26,25,1,213956
25,24,1,213957
25,23,2,213969
25,23,2,213970
24,22,2,213971
24,22,2,213972
24,22,2,213984
25,22,3,213985
25,22,3,213986
25,22,3,213998
24,22,2,213999
23,21,2,214000
23,22,1,214012
24,22,2,214013
24,23,1,214014
25,24,1,214026
26,25,1,214027
27,25,2,214028
27,25,2,214039
27,25,2,214041
26,25,1,214042
25,23,2,214053
23,21,2,214056
24,22,2,214055
22,21,1,214067
22,20,2,214068
21,20,1,214070
21,20,1,214081
21,20,1,214082
21,21,0,214084
22,21,1,214095
22,22,0,214096
23,22,1,214097
23,23,0,214110
23,22,1,214099
23,23,0,214111
24,23,1,214113
23,23,0,214124
23,22,1,214125
23,22,1,214126
23,22,1,214138
23,23,0,214139
